Date,A,HIG,HSIC,CELG,WAT,MCD,FTR,HBAN,ADT,MRO,BA,PGR,MUR,TSN,XOM,KMX,GIS,CNP,FSLR,LLY,JNJ,ADS,JNPR,AMAT,SWK,NSC,TMO,PKI,SYMC,LB,VFC,KSS,HCP,MCO,XEC,AIZ,IRM,MET,PFG,AVB,FE,WM,VTR,GT,V,ABC,PNW,PG,MCK,PPL,DO,HBI,FOXA,ROST,LLL,VIAB,CME,STT,O,HRL,CTL,CTXS,AN,BBBY,MNST,CHK,PVH,AVY,KO,BLL,WYNN,MSFT,KSU,F,STI,RF,XRAY,MLM,PLD,JBHT,FLR,NUE,AEE,GNW,AON,GILD,ECL,IP,SJM,AMZN,SPG,DFS,PRGO,HAL,EFX,JWN,PM,BXP,ALL,PFE,GD,IFF,AMG,WHR,MRK,APC,PH,ADM,URBN,GWW,CAG,TDC,COP,PNR,SLB,NRG,CI,NVDA,LEN,HCA,BDX,ENDP,NLSN,ABBV,ESS,AIV,MS,APA,BF-B,RRC,GRMN,PSX,EOG,EA,AZO,COF,BBT,CVS,SO,ITW,SYK,CERN,ALTR,JPM,CF,NTRS,INTU,GM,MDLZ,EQR,DGX,APH,FDX,DUK,CSCO,DVN,VAR,FB,SNA,TGNA,ISRG,ANTM,MHK,TSCO,LNC,TEL,TSS,ROP,CINF,SRE,OMC,CAT,HD,RHT,CCE,DOV,VLO,CB,NOV,SWN,ORLY,DHR,RIG,CNX,SRCL,UHS,LOW,CMA,NI,AGN,L,NEE,ETN,ADSK,CSX,MYL,VRSN,STX,XLNX,AME,XEL,DISCA,AIG,ABT,FMC,PHM,MPC,BK,DHI,APD,GME,EXPE,PPG,CAH,PEG,AMGN,SYY,NFLX,SBUX,AEP,BAX,NKE,FFIV,PCG,K,NOC,MMC,CTSH,WEC,MSI,OXY,DLTR,MA,CTAS,AVGO,COST,HPQ,AAP,R,DVA,MAT,HP,LUV,RSG,HON,GPC,KLAC,HUM,URI,EQT,PCAR,CHRW,DAL,WFC,CMS,WDC,CMG,VZ,TIF,BMY,ADI,ETR,MO,NBL,ROK,MOS,MAR,ADBE,XYL,MDT,BAC,NFX,TROW,CCL,DTE,EMR,FLS,WMB,AMP,FLIR,FOSL,BEN,TRIP,SHW,T,VMC,MAC,ALXN,IPG,DG,MMV,ICE,PEP,QCOM,CBS,TXT,LEG,M,TRV,PXD,SWKS,TGT,FCX,PWR,STZ,COG,IVZ,DISCK,CMI,WY,HST,CCI,LM,AKAM,WU,PSA,AXP,AES,CL,GS,REGN,THC,IBM,VNO,EBAY,D,C,GPS,RL,MCHP,FAST,DE,HRS,HRB,LMT,CVX,FTI,LYB,SEE,BBY,HSY,NEM,GLW,GOOGL,EL,JEC,VRTX,GE,MAS,KORS,LH,AMT,INTC,WMT,EXPD,CMCSA,ES,DIS,EXC,FITB,TAP,UNM,SCG,BRK-B,WBA,XRX,NWL,HOG,LRCX,MKC,KMB,PNC,MU,PBI,CLX,RHI,AAL,MTB,CPB,RTN,KEY,PAYX,HES,UTX,PDCO,POM,CRM,TXN,SCHW,NE,EW,DRI,TMK,PRU,KR,EQIX,UNH,FIS,EIX,UNP,ED,ACN,HAS,ADP,JCI,SLG,NTAP,AFL,ESV,BLX,IR,BWA,EMN,UPS,PBCT,AWR,CTWS,WTR
1/2/2013,41.88,23.71,82.42,81.1,88.71,90.12,4.36,6.57,46.02,31.65,77.07,21.69,60.58,19.98,88.71,37.72,41.32,19.62,31.99,49.51,70.84,149.04,20.55,11.835,75.44,63.29,65,32.09,19.495,47.4,150.36,42.21,45.54,51.77,58.25,35.48,32.08,35.15,29.09,136.03,41.98,33.97,65.16,14.01,155.38,43.49,52.4,69.39,97.6,29.09,69.78,35.59,26.61,54.44,77.55,56.01,51.34,48.32,41.11,32.01,40.18,68.17,39.59,56.15,54.23,16.6,111.8,35.48,37.6,46.05,118.07,27.62,86.14,13.2,29.26,7.31,40.52,96.99,37.35,61.04,61,44.78,31.32,7.9,57.43,75.06,74.33,40.49,89.66,257.31,159.8,39.53,106.71,35.71,54.74,53.63,86.74,106.65,41.16,25.91,71.21,68.35,134.85,107.17,41.34,76.06,87.66,28.67,40.98,207.73,30.09,63.71,59.21,50.61,71.4,22.9,55.16,12.72,39.88,31.3,79.45,26.37,30.99,35.12,148.25,27.37,19.62,80.74,63.92,62.05,42.15,55.26,123.68,14.5475,356.88,61.23,30.07,49.68,43.78,61.98,55.88,80.45,35.9,44.66,207.24,51.81,61.95,29.13,26.67,57.01,58.66,68.08,94.25,65.01,20.34,52.46,72.47,28,80.86,18.49,497.52,60.92,93.17,91.84,27.41,38.06,22.3,114.48,39.87,72.18,51.46,93.5,63.48,54.6,32.71,67.24,35.48,81.79,70.04,33.35,89.87,57.48,46.24,31.01,94.07,49.69,36.19,31.32,25.25,84.21,41.53,70.52,56.45,36.94,20.17,27.7,39.85,31.95,37.09,38.65,27.38,65.48,36.48,32.05,59.42,18.6,64.01,26.88,20.39,85.86,25.66,63.25,138.55,41.69,30.93,89.15,31.9,92.01,55,43.65,67.65,51.84,101.11,40.845,56.91,68.17,35.52,76.14,37.66,56.2,78.16,39.9,510.27,41.99,32.54,101.45,15.02,72.49,51.09,109.2,36.8,57.05,10.47,29.53,64.75,65.15,49.57,68.44,47.91,58.32,46.54,63.16,12.23,35.05,24.81,43.44,301.06,44.27,58.93,32.71,44,64.75,32.54,103.25,86.09,57.51,38.79,38.34,27.5,41.88,12.03,27.26,66.98,37.5,61.48,54.6,152.01,34.03,65.28,23.46,94.04,129.97,44.16,156.68,35,53.88,58.8,100.05,11.63,42.92,15.44,124.92,69.33,64.75,39.3,25.48,27.75,38.31,72.86,109.75,21.65,58.82,35.17,27.91,37.56,49.23,26.96,60.16,113.37,29.15,16.14,75.1,26.42,42.16,13.76,146.09,58.75,11,106.31,131.66,181.2,33.39,196.35,80.92,53.59,52.92,41.25,31.37,152.1,33.75,47.83,87.99,50.21,19.06,93.27,110.39,43.5,59.17,17.94,11.81,74.33,46.9,12.86,723.25,61.01,43.75,43.65,21.34,17.07,51.51,87.58,79.05,21.38,69.24,40.9,38.52,39.82,51.1,29.82,15.77,43.54,21.46,46.81,93.2,38.06,7.19,22.61,49.99,38.73,65.23,86.38,59.54,6.63,10.79,74.09,32.56,13.98,101.03,35.92,58.62,8.78,31.85,53.71,84,34.7,9846.1504,171.17,32.31,15.08,36.15,92.14,45.4,52.55,56.02,26.37,215.01,54.54,35.82,46.01,128.46,56.59,69.06,35.82,58.39,30.57,78.43,34.3,54.07,61.79,22.13,49.47,74.51,69.78,76.31,12.44,20.86903,25.511789,17.941521
1/3/2013,42.03,24.17,82.4497,81.67,86.22,90.63,4.37,6.65,46.11,31.59,77.47,22.03,60.81,20.35,88.55,37.94,41.34,19.68,34.4109,49.72,70.74,150.24,20.17,11.81,74.05,63.46,64.8,32,19.41,44.71,151.79,42.35,45.6,51.98,59.34,35.39,32.67,35.1,28.87,136.78,42.04,34.09,64.68,14.07,155.5,43.4,52.36,68.95,98.74,29.2,70.35,36.17,26.26,58.78,77.42,56.45,51.56,48.06,40.99,33.2,39.76,65.8652,40.58,56.62,52.21,16.77,113.7,35.73,37.6,46.44,119.34,27.25,87.63,13.46,28.63,7.33,40.41,96.95,37.4,61.26,60.37,44.69,31.19,8.13,57.11,74.95,74.1,40.37,89.18,258.48,158.52,39.4,108.02,36.31,54.5,55.27,85.86,106.78,41.58,25.85,71.49,68.1,133.91,106.9,42.33,76.33,88.34,28.44,40.74,207.07,30.02,62.29,59.17,50.16,70.92,22.96,54.35,12.73,39.91,31.65,80.39,26.25,30.84,34.83,148.76,27.46,19.58,81.82,62.5,63.4,42.09,53.19,124.18,14.74,356.14,60.55,29.92,49.78,43.77,62.23,56.14,80.21,35.19,44.57,206.26,51.79,61.74,29.82,26.64,57.25,58.37,67.21,94.6,64.87,20.45,53.39,73.68,27.77,80.58,18.48,503.67,58.93,93.27,91.76,27.9,37.84,22.38,114.61,39.87,71.96,51.63,94.4,63.3,53.91,32.44,67.13,34.72,82.22,69.67,33.47,90.21,58.03,49.2003,31.93,95.03,49.84,35.85,31.72,25.22,85.92,41.71,70.53,56.37,36.37,20.36,27.62,40.03,31.3814,37.02,38.47,27.3,65.53,36.18,33.27,58.91,18.57,62.22,26.58,20.38,85.56,24.36,62.83,137.75,41.79,30.93,88.59,31.76,96.59,55.37,43.62,67.78,52.37,97.25,40.76,56.52,67.94,35.49,75.3595,37.57,56.01,78.47,39.48,511,42.18,32.71,102.49,15.14,72.49,51.96,109.93,36.72,56.99,10.72,29.73,65,65.4,49.14,66.25,48.05,59.06,46.33,62.34,12.58,34.76,24.88,43.02,300.95,44.06,60.28,33.24,43.29,64.44,32.56,103.24,86.19,56.77,39.1,37.75,27.41,42.47,11.96,27.51,66.99,37.03,61.43,54.86,152.32,33.77,65.17,23.86,95.04,129.79,43.91,155.14,35.02,53.5,58.98,98.48,11.86,42.33,15.59,126.92,69.36,64.4483,39.06,25.69,27.89,37.47,73.42,111.3168,21.49,60.16,34.85,27.67,36.69,49.89,27.01,60.33,114.17,29.15,16.35,73.6,26.09,40.95,13.53,145.55,59,10.94,106.66,130.94,180.71,34.28,195.27,81.31,52.4498,52.98,41.39,32.09,157.21,33.4,47.9792,87.77,49.44,19.14,93.55,109.92,43.11,57.64,18,11.99,73.51,45.62,12.77,723.67,62.23,43.54,45.15,21.1,17.3,52.05,87.7,77.12,21.32,68.8,41.03,38.09,39.6,51.21,30.06,15.63,42.94,21.65,46.63,93.62,37.79,7.19,22.46,48.96,37.98,65.01,86.01,59.75,6.8998,11.09,73.89,32.88,13.66,101.13,35.99,58.64,8.84,31.9,54.2,84.31,34.7405,9692.3096,168.71,31.89,15.06,36.45,92.52,44.84,53.13,55.65,26.39,212.11,51.99,35.57,46.34,128.64,56.58,68.81,36.12,58.62,29.82,78.16,34.17,52.7,60.67,22.12,48.96,74.39,68.88,76.38,12.48,20.648596,25.494734,17.873556
1/4/2013,42.86,24.52,82.37,82.09,86.82,89.8487,4.3603,6.69,46.75,32.01,77.69,22.27,60.93,20.34,88.96,37.86,41.77,19.82,33.5863,51.56,71.55,151.1,20.38,11.81,74.76,65.37,65.37,33.17,19.62,44.88,153.81,42.23,45.78,52.77,60.52,35.93,33.2,35.95,29.33,136.37,42.01,34.08,64.98,14.35,156.77,43.69,52.4,69.09,99.94,29.21,71.51,37.11,26.5,57.95,77.71,57.51,53.77,49.39,41.33,34.31,39.91,66.55,42.23,56.9,51.89,17.45,115.66,36.44,37.66,46.5,120.78,26.74,88.82,13.57,29.42,7.59,40.76,97.64,37.71,61.88,60.53,45.28,31.19,8.28,57.13,75.7245,74.35,40.85,90.2,259.15,158.59,40.04,108.48,36.65,55.56,54.73,86.52,107.47,42.2,25.96,71.07,68.23,137.1,105.99,41.97,78.27,88.82,29.22,41.39,208.42,30.24,62.83,59.83,49.94,72.01,23.18,54.75,13.15,40.23,31.94,80.35,25.06,31.19,34.3908,148.92,27.45,20.19,83.2,62.73,65.14,42.09,53.14,125.8,14.88,360.85,61.96,30.2,49.99,44.16,62.4,56.73,81.07,35.14,45.36,210.88,53.42,62.22,29.86,26.74,57.23,58,66.94,94.91,65.06,20.4819,54.58,72.72,28.76,79.97,18.82,500.28,59.29,93.52,91.64,28.11,37.64,22.27,115.52,40.34,72,51.47,94.92,63.18,54.25,32.87,67.3,35.31,82.32,71.75,34.34,91.65,58.09,51.82,32.43,95.24,50,35.58,32.59,25.4,85.3,42.06,70.88,56.75,36.36,20.94,28.2,40.04,31.45,36.5,38.92,27.4,66.08,36.3,33.07,59.13,19.06,62.55,27.29,20.72,86.71,24.8,64.46,139.47,42.45,31.06,88.98,31.85,95.98,55.69,43.55,68.43,52.88,97.53,41.17,56.64,68.76,35.39,75.18,37.69,56.28,79.84,39.62,510.98,42.59,32.5,102.16,15.14,73.62,51.93,109.84,36.45,57.66,10.88,29.86,66.33,65.63,48.98,67.47,48.99,60.42,46.8,63.04,12.98,34.94,25.1,42.88,300.18,44.3,61.18,33.35,42.52,64.43,32.54,104.9,87.29,58.62,39.23,38.13,27.37,42.66,12.11,28.03,68.34,37.06,61.64,55.07,153.54,34.14,65.95,23.62,97.12,131.47,44.12,158.8,35.23,53.85,59,97.62,11.76,44.6,15.7,129.6,69.46,63.5,38.65,26.23,28.02,37.94,74.06,113.17,20.95,60.58,35.49,27.96,36.75,50.11,27.56,60.74,113.86,29.39,16.68,73.54,26.32,40.43,14.02,146.22,59.61,11.2,107.9,134.51,181.07,34.11,193.99,82.25,52.78,53.54,42.4298,32.1,159.39,33.21,48.0363,88.67,49.88,19.25,93.9,110.5,43.64,58.41,18.11,12.11,74.54,45.94,12.73,737.97,62.69,43.92,45.85,21.2,17.47,52.23,87.87,77.05,21.16,69.06,41.82,38.07,39.64,52.19,30.27,15.69,42.75,21.89,46.67,93.85,37.18,7.11,22.55,48.69,38.07,65.25,86.36,60.48,6.96,11.37,74.71,33.41,14.73,102.8,35.68,59.01,8.95,32.17,55.02,84.98,34.7064,9692.3096,169.61,31.8219,15.46,37.34,92.65,46.46,53.46,56.52,26.46,215.26,52.09,35.98,47,130.89,56.9,69.19,35.74,59.1376,29.78,78.48,34.08,52.04,62.73,22.1,49.77,73.79,70.16,76.57,12.6,20.784246,25.571474,17.853168
1/7/2013,42.55,24.21,83.08,85.73,87.09,90.91,4.46,6.7,46.66,31.85,76.13,22.02,60.21,20.22,87.93,37.21,41.5995,19.6,31.37,51.49,71.4,154.41,20.15,11.67,75.09,64.83,65.88,33.07,19.65,44.66,149.38,41.97,45.5,52.53,61.21,35.17,33,35.79,29.07,136.51,41.49,33.97,64.76,14.1,157.89,43.83,51.89,68.62,100,28.92,71.1,36.78,26.2,57.5651,77.18,56.29,53.49,49.44,41.75,34.15,40.13,68.16,41.67,56.42,50.06,17.62,117.04,36.68,37.3,46.09,121.19,26.69,86.42,13.43,28.97,7.46,40.9,97.77,37.96,61.42,60.31,45.48,30.8,8.33,56.8,76.88,73.9,40.79,89.89,268.4592,159.72,39.42,109.03,36.65,55.38,54.43,86.25,108.26,41.74,25.98,71.86,68.14,137.3,104.37,42.12,78.25,88.25,28.01,40.84,207.12,30.17,63.85,59.17,49.94,72.21,22.68,54.94,12.77,41.22,32.32,80.62,25.9595,31.55,34.46,149.17,27.53,19.8,80.35,61.71,65.21,42.08,51.36,125.99,14.45,356.17,62.88,30.04,50.03,43.39,62.26,57.07,83.02,35.27,45.41,210.09,53.09,62.29,29.66,26.66,57.66,57.79,67.03,94.72,64.75,20.2903,54.6,75.19,29.4213,79.65,18.79,502,59.74,92.74,90.35,27.8,37.19,22.29,115.04,40.3,71.85,51.21,95.21,62.8412,53.92,32.87,66.86,34.35,81.32,71.35,33.51,90.05,58.09,52.51,31.78,95.82,51.21,34.76,32.34,25.15,85.66,42.11,70.5492,55.75,36.09,20.46,27.91,40.06,31.4817,36.35,38.59,27.11,65.92,35.93,33.34,59.95,19.31,60.25,26.89,20.81,86.63,24.75,64.41,138.26,42.43,30.62,88.53,31.76,99.2004,55.7204,43.37,68.5,52.96,96.2357,40.47,56.66,68.67,35.31,75.51,37.33,56.58,79.88,39.9591,519.53,42.5,32.32,101.37,15.17,73.37,51.65,108.29,36.02,57.05,10.91,29.72,66.36,65.21,48.63,67.28,48.25,60.48,46.29,63.15,12.99,34.77,24.8,42.9,299.59,44.69,61.1,33.4,42.65,63.34,32.46,105.09,86.93,58.71,39.01,37.94,27.01,43.16,12.09,27.72,68.33,36.94,60.95,54.7,153.75,33.99,65.25,23.52,95.85,130.53,45.12,158.49,35.39,53.73,58.78,97.31,11.77,43.72,15.61,126.91,69.45,64.01,38.24,26.4,27.4,37.65,73.06,112.13,21.26,61.3,35.36,28.25,36.41,49.71,27.48,60.21,112.53,29.48,16.79,72.76,26.18,40.77,13.67,145.95,59.86,10.85,106.08,134.26,182.53,34.3,193.14,81.94,53.51,52.66,42.47,31.2,161.52,33.17,47.82,88.6,50.07,19.19,94.22,109.75,43.69,59.14,18.16,12.21,74.46,45.01,12.63,734.75,62,44.04,47.29,21.13,17.25,52.53,87.67,76.96,21.25,68.4,41.37,37.9,39.21,50.97,29.87,15.58,41.96,21.77,45.91,93.45,38.03,7.23,22.14,49.03,37.57,65.08,84.46,61.03,7.18,11.65,74.41,32.66,14.84,102.46,35.5,58.35,8.97,32.02,55.84,84.57,35.14,9769.2305,168.98,31.92,15.27,37.02,94.5,46.04,53.53,55.79,25.82,218.78,52.09,35.8,46.15,130.27,56.35,68.89,35.35,58.91,29.82,78.98,33.24,51.84,62.5,21.94,48.99,73.49,70.14,76.35,12.56,20.601961,25.486204,17.622105
1/8/2013,42.21,23.85,82.64,91.41,88.74,90.94,4.33,6.65,46.47,31.94,74.13,21.98,60.12,20.32,88.48,37.32,41.27,19.47,31.02,51.88,71.41,155.21,19.72,11.51,75.42,63.99,65.47,33.02,19.42,44.07,149.29,41.81,45.68,52.81,61.14,35.24,32.6,36,29.2,136.09,41.31,34.04,65.07,14.06,159.36,43.77,51.94,68.51,100.79,28.79,70.94,36.49,26.13,56.82,76.75,57.04,52.9,49.11,41.93,34.31,39.73,68.46,42.12,56.3805,50.73,16.88,117.83,35.97,37.04,45.41,121.0853,26.55,85.75,13.35,28.98,7.4,40.43,97.46,37.84,61.33,59.98,45.01,30.94,8.04,56.62,77.4,73.25,40.41,89.09,266.38,159.14,40.09,108.86,36.19,55.44,53.91,86.09,107.33,41.83,26.02,70.41,68.19,137.15,105.01,42.18,78.35,88.32,28.34,41.1768,203.66,30.15,63.74,58.37,49.65,72.51,22.88,54.42,12.4915,41.17,31.7,81.34,26.67,31.19,33.71,149.68,27.43,19.65,79.91,62.89,64.17,42.25,51.59,124.14,13.77,348.25,62.16,29.83,49.85,43.27,62.22,56.97,81.93,34.51,45.5,207.01,52.14,61.62,29.37,26.68,57.87,57.68,66.69,95.11,64.9,20.31,54.21,74.84,29.0607,79.2,18.71,504.43,60.07,93.3,91.86,27.37,36.88,22.7,114.79,40.29,70.84,51.41,94,63.22,54.58,32.87,66.74,34.67,79.99,69.4,32.73,89.2,57.68,52.36,31.27,95.438,50.25,34.78,31.93,24.95,86.68,42.06,71.3,55.02,36.3,20.51,27.78,39.89,31.394,35.61,38.54,27.16,67.85,35.65,33.35,60.41,19.5,61.55,26.52,20.73,86.79,23.19,64.752,140.23,42.43,30.46,88.15,31.44,97.1563,55.62,43.15,68.43,52.4,95.01,40.67,56.85,67.34,34.88,74.5,37.14,55.94,81.72,39.01,517.82,42.62,32.1,101.18,15.39,72.17,51.39,109.67,35.7,56.58,11.03,29.78,65.74,65.14,47.37,66.01,48.1,58.68,45.89,63.21,12.98,34.71,24.76,41.98,297.76,43.1,62.6,33.49,42.21,62.84,32.14,104.06,84.91,58.47,38.9,38.14,26.68,43.11,11.98,27.28,67.85,37,60.71,54.21,155.03,33.57,63.98,23.34,98.38,132.18,44.7151,160.96,34.35,53.76,59.06,97.49,11.61,43.36,15.55,127.18,69.66,63.91,37.52,26.36,27.48,37.05,73.19,112.41,20.41,60.64,34.97,28.47,36.06,48.96,27.23,61.9687,111.16,29.68,16.75,72.67,25.85,40.14,13.67,144.96,60.2,10.85,106.32,133.05,176.63,33.47,192.87,81.13,52.68,52.37,42.46,32.01,162.25,32.5805,47.56,87.68,48.91,19.06,92.96,109.26,42.97,59.74,18.2,11.82,73.66,45.56,12.48,733.3,62.74,44.19,48.5,20.9,17.23,53,86.77,77.27,21.09,68.59,41.08,38.16,39,50.76,29.61,15.44,41.83,21.61,46.13,93.81,38.17,7.22,22.21,48.88,36.98,65.04,84.03,60.25,7.23,11.78,74.63,32.62,15.16,102.35,34.99,57.74,8.96,31.95,55.41,83.55,35.16,9769.2305,169.97,31.5528,15.22,36.15,92.57,45.31,53.05,55.66,25.28,215.21,51.4,35.68,46.08,130.18,56.03,69.29,35.38,59.25,29.77,78.62,32.5,52.44,61.78,22.03,49.23,72.49,69.51,76.14,12.56,20.589251,25.469158,17.67647
1/9/2013,43.35,23.87,83.08,92.34,91.02,90.81,4.35,6.58,46,31.65,76.76,22,59.98,20.28,88.14,37.67,41.23,19.67,31.9,52.97,71.73,155.57,19.95,11.68,75.11,64.75,67.73,34.36,19.52,44.12,147.7,41.95,45.58,53.27,60.18,35.44,32.51,36.05,29.37,136.64,40.22,34.57,65.27,14.36,161.79,43.77,51.93,68.88,101.1,28.96,71.19,36.39,26.39,56.9,77.86,57.8,52.86,49.51,42.22,34.51,39.83,70.75,42.25,56.62,50.33,17.08,118.46,36.2,37.03,45.61,121.52,26.7,86.19,13.47,28.71,7.3,40.41,98.04,38.22,61.34,60.73,45.25,31.08,8.14,56.79,77.87,73.37,40.33,89.59,266.35,159.92,39.85,109.64,36.48,55.99,54.04,85.83,107.56,42.23,26.47,70.68,68.64,138.15,105.81,42.59,78,90.17,28.48,40.75,205.06,30.4,63.81,58.25,50.57,72.2,22.8,54.63,12.21,41.71,33.05,81.55,26.54,31.02,33.9,150.24,27.54,19.62,79.6,62.32,63.56,39.3,51.32,124.63,13.7,349.6,62.31,30.04,50.28,43.06,61.87,58.38,81.3,34.36,45.47,214.25,52.15,62.16,29.97,27.05,58,58.76,67.51,96.77,65.01,20.3,53.35,75.25,30.59,79.67,18.77,506.73,62.05,94.53,93.4,27.4,37.11,23.55,115.2,40.73,71.37,51.45,94.44,63.17,54.44,32.95,67.23,34.37,80.64,69.86,32.09,88.39,59.8,52.76,30.83,95.4,50.81,34.88,31.6,25.19,87.46,42.11,70.8,55.77,36.67,20.54,28.03,39.56,33.48,35.89,38.75,27.2,67.76,35.76,33.57,61.6,19.49,62.42,26.61,21.15,87.96,22.61,63.7,141.4,42.64,30.1,88.67,30.88,95.91,54.63,43.16,68.39,52.45,95.66,40.77,56.99,67.04,34.86,74.41,37.2,56.25,82.11,38.18,532.39,42.72,32.81,101.23,15.85,72.39,52.02,109.64,36.81,57.76,11,30,66.54,65.72,47.84,66.91,48.25,57.19,45.63,64.21,13.11,34.71,24.81,43.8,294.03,43,63.26,33.68,42.1,62.73,31.9,103.84,86.15,59.35,38.9,38.66,27.1,43.38,11.43,27.29,67.44,37.1,60.79,54.7,154.65,33.77,64.27,23.42,99.45,131.37,44.33,162.17,34.24,53.75,58.79,100.31,11.63,42.99,15.774,127.61,70.01,64.88,37.95,26.37,27.56,36.69,73.94,111.2,21.01,60.18,35.22,28.82,35.82,47.53,27.37,61.92,113.12,30.36,16.71,72.59,26,39.7,13.36,145.49,60.26,10.9,106.13,134.32,183.4,33.46,192.32,81.37,52.76,52.2,42.04,31.81,165.58,32.94,47.55,89.06,50,19.46,93.99,109.54,43.7,59.6,18.22,11.59,74.46,44.9,12.4,738.118,62.49,44.43,48.25,20.95,17.43,53.31,87.13,77.73,21.45,68.57,42.16,38.42,39.12,50.78,29.24,15.41,42.11,21.76,46.16,93.32,38.45,7.22,22.26,50.81,37.29,65.47,84.61,60.17,7.31,11.88,74.82,32.78,15.13,102.8,35.21,58.21,8.9,31.96,55.6,84.55,35.51,9692.3096,171.83,32,15.13,36.14,93.2,45.8,53.03,56.31,25.55,217.84,52.37,36.02,45.82,130.89,56.11,69.78,35.68,59.11,30.55,78.95,32.21,52.5,61.69,22.43,49.21,72.61,70.58,77,12.57,20.813925,25.452101,17.737631
1/10/2013,43.67,24.07,83.36,95.48,91.26,91.4,4.34,6.67,46.5,32.28,77.09,22.38,60.69,20.16,89.1,37.73,41.6,19.79,31.97,53.25,72.19,154.83,20.3,11.64,75.83,64.67,67.54,34.7,19.94,44.3,150.92,42.5,45.95,53.08,61,36.09,33.1,36.59,29.67,137.09,40.12,34.86,65.16,14.13,160.51,43.89,52.18,69.27,101.66,29,72.3,36.16,26.97,57.3,78.49,58.5,53.32,50.25,42.8,34.5,40.18,70.48,42.69,56.7,48.76,16.73,117.81,36.05,36.96,45.61,122.9,26.46,85.4,13.83,28.6,7.35,40.33,98.42,38.04,61.4,62.63,45.47,31.48,8.23,58.08,77.94,73.15,40.01,89.84,265.34,159.9,40.48,110.23,36.9,56.11,54.88,87.29,107.4,42.58,26.76,71.65,69.05,138.75,105.78,42.78,77.66,89.6,28.34,42.64,203.75,30.62,64.66,58.5,50.6,73.25,23.14,55.62,12.23,41.02,33.17,81.68,26.24,30.9,34,151.26,27.45,20.34,80.71,62.86,63.83,39.39,51.51,126.1,14,346.5,62.87,30.54,51.23,43.22,62.76,58.84,82.21,34.93,46.15,217.47,52.41,62.41,30.44,27.31,58.37,59.58,67.85,97.7,65.37,20.44,53.88,74.88,31.3,79.5,18.99,508.87,62.24,94.43,93.04,27.84,37.2,23.33,114.47,41.2,71.86,52.05,95.08,63.62,54.27,33.16,67.41,34.9,82.04,70.41,32.09,87.74,59.99,53.99,30.9,95.24,50.55,35.55,32.1,25.5,87.99,42.76,71.49,55.93,36.52,20.54,28.25,38.87,33.68,36,38.79,27.2,67.39,35.8,33.85,61.86,19.41,62.79,26.83,20.86,87.88,22.79,62.77,141.77,42.99,30.14,87.81,30.95,98,54.54,43.55,68.43,52.55,95.71,40.87,57.31,67.4,35.13,75.05,37.73,56.78,83.01,38.14,527.65,42.69,33.52,100.74,16.28,71.76,53.21,109.68,37,58.87,11.07,30.19,66.42,65.64,48.59,69.24,48.2,57.7,46.01,64.38,13.3,35.4,24.95,44.16,298.41,43.59,60.4,34.09,42.61,63.37,32.7,104.59,86.4,59.73,39.02,38.62,27.48,43.85,11.78,28.19,68.21,37.14,61.41,55.14,155.25,33.81,65,23.3,100.99,134.01,43.49,162.36,34.37,54.2,58.18,102.57,11.74,43.38,15.65,128,70.81,64.78,38.54,26.61,27.88,37.25,74.45,112.56,21.32,60.31,35.6,29.19,35.68,47.76,27.56,61.66,112.44,30.54,16.9,73.18,26.84,39.5,13.85,146.28,60.79,11.09,107.39,137.37,183.77,33.16,192.88,81.05,53,52.22,42.83,31.35,167.48,33.55,46.5,89.91,50.04,19.8,94.11,110.47,44.43,60.61,18.29,12.21,75.93,45.95,12.64,741.48,63.8,45.19,46.8,21.17,17.47,52.01,87.41,78.67,21.8,68.36,42.54,38.5,39.31,50.79,29.26,15.7,42.34,22.12,46.52,94.65,38.57,7.29,21.95,50.36,37.85,64.68,84.93,61.14,7.42,11.9,75.48,32.74,15.14,103.54,35.31,58.58,8.94,31.85,56.61,84.97,35.6,9923.0801,173.12,32.43,15.33,36.4,92.03,45.24,53.24,57.9,25.55,217.78,53.11,36.54,45.78,131.09,56.09,69.17,37.07,59.32,30.39,79.06,32.42,53.37,61.5,22.63,49.62,72.47,71.17,78.2,12.61,20.864786,25.597057,17.880354
1/11/2013,43.43,23.9,83.07,96.3,90.61,91.73,4.35,6.59,46.84,32.15,75.16,22.34,61.18,20.32,89.61,37.5,40.62,20.04,32.01,53.11,72.35,155.53,20.66,11.71,75.21,64.04,67.55,34.45,19.94,44.38,149,42.02,46,53.28,61.4,36.19,32.84,36.34,29.2,136.16,39.89,34.81,65.19,13.78,161.16,43.84,51.91,69.22,101.08,28.95,72.27,36.35,26.93,56.57,77.88,57.78,54.02,50.58,42.9,34.49,40.32,71.47,43.05,56.27,50.92,16.87,117.47,35.86,36.91,45.4,122.99,26.83,85.54,14,28.31,7.24,39.93,98.25,38.28,60.88,62.17,45.43,31.46,8.11,57.75,78.08,72.81,40.11,88.22,267.94,159.98,40.39,103.85,36.62,56.18,53.84,89.23,107,42.96,26.52,70.74,68.63,139.65,105.05,43.23,77.84,89.04,28.34,42.75,204.63,30.8,65.34,58.27,50.39,73.75,23.56,55.6,12.21,40.95,33.2,81.76,26.255,31.16,33.85,151.11,27.25,20.17,80.57,62.94,64.39,39.6,50.58,125.63,14.24,346.23,61.99,30.31,51.3,43.16,62.56,58.84,81.62,35.27,46.14,218.17,52.57,62.62,30.36,27.42,58.15,59.41,68.37,97.4,65.69,20.48,54.26,74.58,31.72,79.6,18.94,506,61.75,94.23,91.49,27.84,37.9,23.66,114.38,41.26,71.83,52.28,95.19,63.7,54.45,33.49,67.07,34.7,82.76,70.89,32.51,88.01,59.78,54.09,30.19,94.85,50.91,35.83,31.83,25.76,83.71,42.65,71.78,55.75,36.8,20.54,27.84,38,33.29,35.8,38.77,27.17,68.16,35.23,33.37,61.4,19.34,61.99,26.78,20.95,88.37,23.25,62.61,142.1,43.06,30.12,86.96,30.91,101.29,55.01,43.24,68.95,53.1,97.89,40.95,57.02,67.07,35.26,78.47,38.03,57.5,83.08,38.12,528.68,42.58,34.34,100.28,16.16,72.29,53.12,109.2,37.13,58.54,11.05,30.19,66.31,65.04,49.19,69.56,47.57,58.42,46.03,64.54,13.35,35.1,24.89,43.98,300,43.3,60.28,34.13,42.26,63.07,32.93,105.57,85.88,59.74,38.88,38.09,27.18,44.07,11.63,28,69.54,37.03,61.46,55.04,155.63,33.49,65.07,23.12,100.79,135.66,43.98,161.28,34.27,54.58,57.94,100.39,11.68,43.34,15.54,129.36,70.88,64.9,38.57,26.41,28,36.89,74.85,111.85,21.37,60.07,35,29.02,35.63,48.1,27.74,62.09,110.59,30.8,16.67,72.78,26.52,39.59,13.8,147.05,61.24,11.11,107.09,137.13,179.46,34.3,194.45,81.08,53.7,52.43,42.34,31.71,165.93,33.59,46.5,89.62,49.75,19.98,93.71,111.73,44.3,60.91,18.22,14.21,76.12,45.76,12.45,739.99,64.13,44.95,47.31,21.13,17.69,52.94,86.41,78.78,22,68.63,42.7,38.46,39.19,50.58,29.29,15.47,42.69,22.21,46.49,94.39,39.1,7.26,21.8,50.14,38.44,65.07,85.1,60.05,7.54,11.91,75.68,32.88,14.78,103.24,35.22,57.99,8.84,31.78,56.25,85.18,35.49,9923.0801,173.35,32.42,15.39,36.42,91.79,44.92,53.45,57.6,25.7,217.72,52.82,37,45.8,130.97,55.91,69.88,36.89,59.42,30.25,79.12,33.06,52.93,60.88,22.4,49.6,71.7,70.52,77.92,12.59,21.153046,25.648218,18.131805
1/14/2013,43.54,23.82,84.05,97.67,90.3,91.53,4.39,6.59,47.38,32.06,76.55,22.55,61.34,20.45,89.58,37.48,40.93,19.88,31.21,52.8,72.56,156.22,20.82,11.75,75.29,64.87,67.56,34.21,19.91,45.5,153.88,41.99,46.12,53.24,62.25,36.92,32.99,36.3,29.17,136.81,39.49,34.86,65.02,13.94,160.65,44.29,51.97,69.63,101.44,28.95,71.38,37,26.8,56.25,77.83,57.76,54.33,51.01,43.22,34.36,40.07,70.71,43.31,55.73,50.77,16.94,117.74,35.96,36.99,45.59,122.8,26.89,85.69,13.99,28.09,7.19,39.81,98.08,38.3,60.77,62.07,45.53,31.47,8.01,57.36,77.77,72.94,40.83,88.3,272.73,159.44,39.73,104.47,35.91,56.58,53.83,89.07,107.36,42.93,26.74,70.35,69.04,139.81,105.43,43.34,77.87,89.32,28.56,42.25,206.99,31.03,66.03,58.47,50.34,72.77,23.2,55.68,12.2,41.02,33.85,82.3,26.46,31.14,34.09,151.85,27.4,20.07,80.33,63.61,64.76,39.91,51.35,124.66,14.43,344.99,61.28,30.26,51.89,43.05,62.88,58.87,82.16,34.68,45.88,218.69,52.52,62.68,30.33,27.48,58.42,59.66,68.18,98.42,65.39,20.97,53.82,73.85,30.9475,79.72,19.13,512.72,62.44,94.08,91.67,27.57,37.82,23.75,114.28,41.21,72.25,52.69,94.63,63.48,54.99,33.64,66.6,35.33,83.03,70.34,32.58,88.55,59.59,53.93,29.91,94.46,51.52,35.38,31.72,25.88,84.1,42.54,71.69,55.33,36.83,20.65,27.54,38.38,33.97,35.84,38.6,27.08,67.8,35.05,33.36,61.31,19.1,62.62,26.72,20.89,87.99,23.01,62.88,141.03,43.19,30.01,86.92,31.07,103.445,54.67,43.24,68.03,53.19,97.19,40.89,57.38,67.22,35.19,78.45,38.06,57.67,82.67,38.04,523.51,42.25,34.57,100.37,16.95,72.58,53.27,109.48,36.82,58.04,11.02,30.24,66.76,65.3,48.92,70.24,47.6,58.51,46.19,64.8,13.44,34.77,24.92,44.7,295.97,42.59,61.25,34.22,42.24,63.21,32.99,105.43,85.72,59.53,38.73,38.16,27.21,44.22,11.47,27.75,69.35,37.37,61.31,55.32,154.33,33.47,65.3,23.08,101.47,135.58,44.15,161.18,34.02,53.87,58.02,99.35,11.74,43.02,15.7,129.52,71.29,64.24,38.21,26.45,28.05,37.08,74.95,111.74,21.01,60.39,34.72,28.66,35.33,48.64,27.34,61.795,111.55,30.8,16.64,72.94,26.7,39.995,13.8,146.31,61.21,11.03,107.93,136.13,179.4,34.68,192.62,82.41,53.18,52.39,42.22,31.39,166.34,33.11,46.47,89.86,49.19,19.41,93.91,112.85,44.12,61.2,18.33,14.48,76.55,45.3,12.5,723.25,64.23,44.92,47.34,21.12,17.5,54.46,86.79,78.7,21.999,68.3,42.7,38.92,39.04,50.59,29.42,15.35,42.9,22.24,46.31,95.36,39.04,7.4,22.06,50.29,38.22,65.3,85.65,59.45,7.6,11.74,76.6,33.26,14.67,102.79,35.53,57.87,8.87,32.27,56.42,85.8,35.61,10153.7998,174.01,32.34,15.27,37.3,91.4,44.64,53.52,57.2,25.86,216.04,53.36,37.19,46.07,131.34,55.74,69.86,36.56,59.41,30.3,78.82,33.24,52.95,60.99,22.3,49.75,71.97,70.5,79.24,12.66,21.322607,25.76759,18.084234
1/15/2013,43.24,23.89,84.02,99.39,90.9,91.51,4.41,6.64,47.25,31.93,76.94,22.65,61.76,20.41,89.53,37.91,40.82,20.06,31.62,53.29,72.37,155.15,21.01,11.77,76.14,65.46,67.74,34.16,20.85,46.43,153.89,42.75,46.16,53.44,62.85,36.78,33.62,36.29,29.15,138.37,39.87,34.91,65.22,14.01,160.45,45.07,52.14,69.88,102.37,28.91,71.44,37.58,27.04,58,78.86,57.82,54.74,50.8,43.32,34.45,39.79,69.72,43.58,55.8,51.05,17.37,119.45,35.96,37.32,45.77,123.8,27.21,86.9,14.3,28.89,7.29,39.59,98.95,38.47,60.9,62.59,46.06,31.69,8.13,57.54,77.36,73.13,40.8,88.36,271.9,160.19,39.34,105.1,36.18,57.06,55.41,88.92,108.7,42.91,26.62,70.58,69.44,140.67,104.43,42.87,78.1,89.64,28.42,42.1,208.07,31.07,66.05,59.03,50.31,72.59,23.42,55.87,11.98,40.68,34.99,82.7,26.82,31.32,34.6,153.14,27.56,20.43,80.4,63.79,65.93,40.03,52.24,125.1,14.61,350.9,61.7,30.32,51.79,42.99,62.62,59.56,80.7,34.34,46.35,217.01,52.81,62.95,30.6,27.71,58.74,59.86,68.35,98.67,66.05,20.98,53.67,74,30.1,80.35,19.4,503.59,63.01,94.16,92.54,27.36,38.01,23.76,114.32,41.04,72.7,52.91,95.67,63.95,54.99,33.81,66.61,35.8,83.42,70.24,33.16,89.72,59.99,53.89,30.6,94.2,53.26,35.93,31.87,25.9,85.25,42.5,71.88,55.59,36.71,20.78,27.98,39.36,34.46,35.72,38.53,27.05,67.09,34.84,33.02,61.16,19.47,64.26,26.78,21.08,87.7,23.16,63.52,140.14,43.49,29.97,85.08,31.21,101.69,54.48,43.16,67.04,53.64,97.44,41,57.12,67.48,35.07,78.16,38.04,57.53,82.49,38.6,522.8,42.32,33.87,101.15,16.53,73.64,54.32,110.31,37.03,59.04,11.08,30.31,66.88,65.64,48.39,71.58,48.71,58.95,46.1,65.35,13.63,35.11,24.94,44.84,297.32,41.97,63.24,34.3,42.02,63.35,32.78,105.31,85.53,59.51,39.16,38.15,27.13,44.13,11.55,28.04,69.7,37.65,61.33,55.01,153.55,33.3,64.88,23.57,103.62,135.6,44.15,161.02,33.76,54.37,58.37,98.22,11.74,44.64,15.56,128.59,71.6,64.44,38.1,26.41,28.19,37.91,75.56,110.86,20.5,61.09,34.61,28.88,36.41,49.44,27.53,61.52,111.82,30.58,16.78,73.21,26.9,39.66,13.69,147.67,60.76,11,107.74,135.59,174.84,35.47,192.5,82.73,52.505,52.53,42.57,32.46,166.95,33.02,47.04,89.73,49.65,19.28,94.02,113.44,46,61.34,18.28,14.42,76.19,45.19,12.62,724.93,64.34,45.55,47.08,21.2,17.46,54.32,87,79.32,21.88,68.98,42.74,39.2,38.98,51.09,29.75,15.41,43.08,22.21,46.21,95.36,39.3,7.42,22.35,51.33,38.08,65.37,85.7,59.77,7.6,11.7,76.61,33.53,14.31,103.45,35.66,58.15,8.97,32.08,56.67,85.96,34.8,9769.2305,174.65,32.28,15.29,37.6,90.07,45.33,53.44,57.14,26.11,216.79,53.62,36.76,46.4,131.44,55.34,70.25,37.21,59.14,30.53,79.34,33.48,53.03,60.68,22.21,49.79,73.63,70.18,79.33,12.66,21.229349,25.426525,18.172583
1/16/2013,43.05,24.13,83.96,98.86,90.56,91.1,4.37,6.72,47.79,32.32,74.34,22.59,61.68,20.46,89.47,37.8,40.84,19.92,30.72,52.93,72.58,156.43,20.98,11.93,76.05,65.45,67.72,34,20.71,46.61,152.9,42.79,45.97,53,62.75,36.3,33.43,36.35,29.04,137.93,39.37,34.97,65.14,13.85,160.2,45.02,51.9,69.34,102.13,28.71,71.8,38.29,26.99,57.57,78.38,57.17,54.79,49.85,43.43,34.42,39.58,68.87,43.65,55.91,50.55,17.31,118.36,35.85,37.32,45.51,122.96,27.04,86.57,14.22,29.23,7.38,39.82,97.7,38.45,61.34,62.75,45.91,31.37,8.85,57.14,77.17,72.84,40.59,88.59,268.93,159.72,39.13,104.69,36.26,56.64,55.95,88.34,107.59,42.78,26.61,69.8,69.46,140.04,102.8,42.54,77.01,89.84,28.39,41.9,208.19,31.17,65.11,58.88,50.83,73.22,23.26,55.53,12.09,40.52,35.18,83,26.49,31.1,35.54,152.82,27.78,20.54,80.83,63.6,66.89,39.83,54.52,125.37,14.6,349.33,61.75,30.31,51.76,42.91,62.29,59.43,79.06,35.16,46.82,217.85,49.78,62.95,29.31,27.82,58.58,59.93,68.26,99.54,65.73,21.03,53.86,74.14,29.85,80.33,19.19,498.5,61.85,93.6,92.95,27.34,38,23.73,114.14,41.02,72.22,52.73,95.19,63.86,54.9,33.85,66.89,36.79,82.94,70.42,32.8,88.17,60.07,54.69,30.29,93.91,53.38,35.77,33.05,25.88,84.54,42.47,71.31,55.1,36.73,20.82,28.07,39.25,34.3,36.2,38.5,26.91,66.93,35.54,32.7,60.83,19.34,64.74,26.04,21,87.29,23.07,62.69,139.13,43.73,29.78,84.32,31.15,97.48,54.35,43.12,66.52,53.73,97.32,40.68,57.03,66.85,34.79,78.02,37.78,57.95,82.29,38.82,521.29,41.92,34.56,101.53,17.21,73.36,54.37,112.12,37.32,59.16,11.28,30.25,66.73,65.31,48.5,70.76,48.32,58.66,45.74,64.73,13.92,35.09,24.77,45.31,280.94,41.51,63.76,34.33,42.08,63.07,32.78,105.75,85.5,58.99,38.83,37.88,26.95,43.94,11.78,28.41,69.24,37.82,61.01,54.57,152.45,33.44,64.25,23.39,104.84,135.57,43.97,161.44,33.26,54.12,58.08,97.39,11.68,44.63,15.67,128.08,71.48,64.79,37.94,26.29,28.1,38.43,75.55,113,21.31,61.32,34.25,28.58,38.65,49.59,27.23,61.59,112.06,30.43,16.64,74.01,26.69,39.37,13.53,147.96,60.62,10.95,107.83,141.09,170.03,35.75,192.59,83.16,52.9,52.4,42.48,32.61,166.75,33.36,47,89.56,49.49,19.39,93.55,113.97,46.1,60.52,18.59,14.67,76.54,44.75,12.52,715.19,63.97,45.38,46.45,21.12,17.37,54.11,87.51,78.7,22.11,69.21,42.72,39.18,38.67,51.53,29.67,15.55,43.49,22.13,45.99,95.03,39.39,7.58,22.47,50.75,38.32,65.44,85.49,59.78,7.67,11.71,76.2,33.17,14.63,102.9,35.71,57.77,9.15,31.95,57.03,85.57,34.81,9846.1504,169.64,32.51,15.05,38.96,91.31,45.36,53.57,56.81,26.29,216.47,53.66,37,46.13,131.36,55.31,69.89,37.57,58.83,30.54,79.33,34.23,51.61,60.67,22.02,49.47,75.55,70,79.66,12.64,21.271742,25.187778,18.063847
1/17/2013,43.87,24.36,84.61,98.19,90.57,91.76,4.4,7,47.99,33.16,75.26,22.6,61.79,21.23,90.2,38.3,41.15,19.91,30.5315,53.33,72.9,156.11,21.28,12.4,77.28,65.95,68.93,34.5,20.85,46.94,151.13,43.45,46.25,53.45,62.96,37.18,33.87,36.36,29.51,138.58,39.41,35.27,65.53,13.88,159.88,45.52,52.13,69.67,102.94,28.99,72.69,38.07,27.47,58.27,79.37,57.59,55.48,50.38,43.92,34.48,39.7,68.61,44.24,55.39,49.84,17.55,118.97,35.98,37.51,46.31,123.46,27.25,87.87,14.22,29.57,7.45,40.68,97.95,38.72,62.78,63.1,46.64,31.37,8.88,57.15,77.53,73.32,41.64,89.59,270.48,159.9,39.29,103.72,36.3,56.94,55.65,89.14,107.12,43.09,26.83,71.02,70.08,141.15,107.4,42.75,77.08,91.36,28.78,43.18,210.34,31.51,66.31,59.14,51.85,73.37,23.68,56.56,12.25,41.94,36.54,82.86,26.58,31.28,36.42,152.66,27.7,20.75,81.32,64.17,67.46,39.61,55.15,126.03,14.51,348.63,61.59,30.89,52.17,43,63.3,60.62,79.95,35.7,46.44,217.4,50.05,63.64,29.49,28.055,58.47,60.55,67.83,99.93,66.02,20.95,54.14,74.59,30.14,80.89,19.68,514.2,62.42,96.88,93.99,27.98,38.54,23.87,115.22,41.27,72.67,53.18,95.7,65.05,54.86,34.17,68.24,36.82,83.23,71.73,33.57,87.79,60.71,55.31,30.59,94.15,54.78,37,33.51,26.03,84.57,42.73,71.08,56.42,37.33,20.89,28.04,39.41,35.02,36.44,39.15,26.97,67.35,35.21,32.78,60.83,20.37,65.38,26.44,21.53,88.42,23.49,62.86,141.98,44.16,29.79,83.94,31.28,97.7,54.5,43.2,67.19,53.48,98.52,40.82,57.76,67.14,34.91,78.52,37.95,58.04,82.39,38.98,523.35,42.21,34.81,100.96,17.11,73.42,54.8,112.65,37.78,59.7,11.4,30.39,67.31,65.42,51.89,71.51,49.28,59.06,46.45,64.88,13.83,35.03,24.91,45.22,290.33,42.13,63.66,34.27,43.06,63.27,32.99,106.97,87.07,59.17,39.28,37.73,27.42,45.17,11.28,28.55,69.53,38.19,61.28,55.35,155.5,33.8,65.4,23.47,104.97,135.88,44.09,162.84,33.2,55.14,58.08,97.41,11.94,44.85,15.66,131.21,72.43,65.135,40.95,27.09,28.6,38.07,75.9,114.14,21.655,61.46,34.08,28.61,38.55,50.16,27.48,61.99,114.2,30.79,16.55,74,26.73,39.75,13.43,148.09,60.74,11.07,108.94,141.01,169.59,37.12,193.65,83.46,54.17,52.41,41.24,32.84,168.06,33.61,46.91,90.1,49.73,20.34,94.75,114.74,45.56,62.13,18.83,14.62,78.02,44.44,12.3,711.32,64.23,46.05,46.79,21.3,17.5,53.06,88.27,78.87,22.68,68.85,43.03,39.95,38.7,52.41,30.06,16.29,44.21,22.51,45.84,95.3,39.36,7.58,22.93,52.02,40.07,66.29,86.33,62.01,7.81,11.73,76.9,33.71,14.48,103.33,36.12,58.25,9.34,32.02,57.3,86.4,35.17,9769.2305,171.13,33.15,15.25,39.61,91.51,45.39,53.61,57.74,26.69,218.5,54.4,37.05,46.3,131.67,55.28,69.89,37.94,59.17,31.34,79.32,34.47,51.44,61.32,22.45,50.95,76,71.52,79.79,12.71,21.445541,25.332727,18.077438
1/18/2013,44.15,24.39,84.97,100.03,91.89,92.26,4.48,7,47.98,33.08,75.04,22.72,61.33,21.85,90.8,38.5,41.37,20.02,30.08,53.77,73.23,155.8,21.49,12.65,76.95,66.7,69.4,35.15,20.68,46.91,147.94,43.83,46.48,53.6,63.84,37.29,34.2,36.31,29.51,138.56,39.89,35.25,65.75,13.81,158.27,45.85,52.44,69.94,103.98,29.38,73.35,37.81,27.26,58.22,78.81,57.88,55.5,53.36,44.04,34.69,40.02,67.65,44.16,55.4,47.82,17.82,118.02,35.93,37.7,46.65,124.06,27.25,87.63,14.11,29.14,7.43,40.85,98,39.5,63.08,63.31,47.52,31.7,9.15,57.11,78.28,73.82,41.91,89.56,272.12,159.89,38.55,104,37.5,58.45,55.52,89.98,107.83,43.21,26.54,70.66,70.56,142.42,102.31,42.98,77.55,93.7,28.64,43.39,210.23,31.7,65.61,59.27,52.58,76.5,23.89,56.33,12.17,42.08,36.95,83.94,26.82,31.63,37.32,152.8,27.59,22.38,81.82,64.62,68.27,39.52,55.07,126.79,14.46,349.6,56.99,31.04,52.11,43.49,63.72,61.55,81.19,35.64,46.46,219.06,50.25,63.68,29.28,28.08,58.41,61.4,67.57,99.82,66.81,21.015,54.28,75.09,29.66,81.04,19.84,508.33,62.75,96.3,94.04,27.73,38.72,23.62,116.36,41.62,73.19,53.23,97.62,65.47,54.15,34.28,68.03,36.76,83.24,72.76,33.69,88.91,60.51,55.78,31.88,95,55.46,36.99,33.66,26.24,85.48,42.82,71.55,56.67,37.5,20.91,28,39.55,35.38,37.17,39.36,27.01,67.72,35.09,32.74,60.61,20.49,65.2,26.53,21.52,88.69,23.28,62.24,142.73,44.64,29.83,82.08,31.47,99.17,54.81,43.51,67.05,53.29,96.89,41.01,58.21,67.49,34.94,79.32,38.11,59.01,82.58,38.52,521,42.41,34.44,101.2,17.11,73.75,55,113.23,38.03,61,11.26,30.6,67.81,65.42,51.84,71.4,50.04,59.5,46.37,65.51,13.61,34.93,25.09,44.81,295.02,42.54,63.8,34.46,43.06,63.87,33.27,106.62,87.74,59.38,39.27,37.98,27.51,45.67,11.14,28.64,71.13,38.58,61.9,55.89,157.31,34.74,65.9,23.84,105,133.39,43.68,164.02,33.44,56.69,58.61,97.42,11.94,44.65,15.69,133.33,72.48,64.68,40.42,27.22,28.55,38.42,76.31,113.73,20.88,61.53,33.64,28.84,38.74,51.38,27.66,61.86,115.59,30.63,16.71,74.29,27.49,39.96,13.41,150.26,59.78,11.14,109.01,144.45,167.97,38.04,194.47,84.63,54.21,52.92,41.66,32.96,167.7,33.53,48.6,90.96,49.94,20.56,93.97,115.24,45.99,62.59,18.8,14.88,78.28,44.89,12.1,704.51,62.85,46.05,46.31,22.04,17.78,54.48,88.53,79.35,21.25,69.2,42.87,40.265,39.21,52.34,30.37,16.379,44.84,22.5,46.28,95.16,39.21,7.64,23.12,52.11,40.12,66.65,86.82,61.84,7.885,11.62,76.84,34,14.44,103.29,36.29,58.1,9.28,32.38,57.66,86.95,35.46,9769.2305,170.02,33.52,15.45,39.87,94.56,45.38,53.76,57.71,27.08,219.96,54.56,37.06,46.55,132.49,55.78,70.11,39.01,59.72,31.37,80.23,34.36,51.47,61.82,22.57,50.63,75.63,71.22,80.25,12.39,21.513369,25.528847,18.260931
1/22/2013,44.64,24.63,85.38,99.31,91.27,92.95,4.58,7.08,47.98,33.54,74.16,22.95,61.71,22.15,90.92,38.55,41.49,20.19,31.58,53.44,72.69,157.08,21.5,12.71,77.89,66.94,69.68,35.45,20.86,47.27,148.89,43.7,46.6,53.35,64.04,38.53,34.33,37.14,30.3,139.15,39.9,35.75,65.97,13.87,159.05,45.62,52.85,69.95,103.69,29.6,73.09,37.93,27.17,58.87,78.82,58.93,56.61,55.25,44.04,34.88,40.38,67.57,44.03,56.49,48.54,18.73,117.6,35.8,37.13,46.54,124.32,27.15,91.67,14.17,29.14,7.76,40.89,98.66,39.32,63.71,64.01,48.11,32.06,9.42,57.97,77.91,74.16,42.06,89.88,270.19,160.95,38.89,104.21,37.93,58.25,55.38,90.03,108.92,44.2,26.68,70.71,70.81,143.1,103.92,43.2,79.49,93.28,29.11,42.82,210.47,31.94,65.57,59.98,52.97,78,23.92,57.14,12.11,42.07,38,83.74,27.61,31.5,36.42,153.82,27.55,22.98,82.58,64.37,68.56,38.89,54.61,126.5,14.43,353.37,56.16,30.85,52.11,43.85,63.65,61.71,83,35.51,46.54,223.68,50.66,63.78,28.63,27.56,58.51,61.83,67.81,100.6,67.31,20.87,54.99,75.12,30.729,81.31,20.04,518.49,63.8,97.15,94.05,28.37,39.06,23.56,118.07,42.42,74.01,53.64,97.72,65.75,52.8,34.5,68.24,37.16,84.85,73.79,34.7,88.7,60.4,55.75,32.74,94.69,56.42,37.44,33.79,26.54,85.26,43.39,71.98,56.98,36.55,20.81,27.89,39.7,37.89,36.74,39.83,27.41,67.77,35.91,32.9,61.37,20.55,67.11,26.98,21.55,89.4,23.32,61.99,142.77,44.57,30.35,83.29,31.58,97.81,54.99,44.02,66.95,53.48,96.69,41.25,58.19,68.35,35.32,78.2,38.56,58.29,83.6,39.53,519.76,42.72,34.44,102.15,17.25,74.08,55.36,114.72,38.16,61.18,11.48,30.87,68.4,66.06,51.8,71.93,48.93,60.43,46.47,66.07,14.01,35.04,25.39,47.36,294.23,42.94,63.14,34.85,43.15,64.37,33.15,109.04,88.45,59.78,39.24,37.95,27.68,46.2,11.35,29.14,71.93,38.43,62.65,56.82,157.08,35.15,66.53,24.1,105.948,133.39,44.32,163.7,33.61,58.57,59.21,97.4,11.86,44.97,15.71,134.11,72.2,64.68,41.86,27.08,28.85,38.18,77.95,114.41,20.76,61.49,35.19,29.43,38.1,52.57,27.89,61.8,115.75,31.12,16.8,74.76,28.08,39.93,13.79,150.92,59.4,11.31,108.46,145.95,175.07,38.21,196.08,84.76,53.372,53.29,41.78,32.85,165.32,33.23,47.86,92.66,49.85,20.89,95.33,115.91,46.76,61.47,18.86,15.39,78.79,45.58,12.31,702.87,62.81,46.81,47.07,22.01,17.61,54.95,90.3,79.25,21.17,69.58,43.08,39.81,39.85,52.73,30.45,16.5,45.28,22.86,46.73,95.91,39.49,7.53,23.33,51.71,40.08,66.5,87.2,62.12,7.84,12.05,77.1,34,14.85,104.76,36.44,58.37,9.36,32.47,58.87,87.47,35.8,9769.2305,166.89,33.46,15.71,39.58,91.97,45.87,54.43,58.58,27.43,222.31,56.02,37.68,46.85,133.72,56.03,70.46,38.87,59.96,31.25,80.64,34.785,52.64,61.8,22.88,50.69,75.55,71.46,80.68,12.54,21.776188,25.68232,18.315296
1/23/2013,44.3,24.56,85.77,98.22,90.87,93.48,4.55,7.03,47.36,33.66,74.29,22.62,61.47,22.27,90.7,38.54,41.51,20.16,31.15,52.4,72.85,157.37,21.28,12.7,77.96,68.41,69.8,35.29,21.46,46.92,150.76,43.45,46.46,53.63,62.9,37.95,34.47,37.35,30.36,138.96,39.3,35.5,65.93,13.71,159.05,46.18,52.6,70.69,104.91,29.39,74.2,37.97,27.41,59.09,78.89,59,56.85,55.33,43.69,34.92,40.35,68.85,44.01,56.52,48.06,18.5,117.57,35.99,37.13,46.52,123.13,27.61,92.42,13.88,29.1,7.66,40.88,98.4,39.64,63.46,63.69,47.98,31.85,9.33,57.81,76.84,73.39,42.25,89.76,268.11,161.5,38.81,103.57,37.79,58.15,55.33,88.84,108.76,43.83,26.65,71.45,70.29,143.18,107.7,42.82,78.79,93.05,28.66,42.5,209.79,31.83,66.08,59.55,52.93,78.17,23.88,57.38,12.13,42.61,37.56,83.68,28.04,31.7,37.8,154.42,27.93,22.67,82.06,64.08,67.99,38.3,55.52,124.75,14.05,356.53,56.24,30.76,52.61,43.87,63.93,61.87,82.66,35.18,46.23,223.78,50.57,63.67,28.57,27.79,58.39,58.41,67.66,99.64,67.41,20.62,54.29,74.91,30.82,81.22,20.3,567.06,64.83,98.83,92.29,28.19,39.39,23.33,117.7,42.36,73.69,53.94,96.85,66.46,54.15,34.46,68.16,37.97,84.65,73.67,34.24,89.86,60.46,55.93,32.3,94.91,55.18,37.88,33.49,26.52,85.73,43.37,71.79,56.56,36.86,21.68,28.15,39.87,36.62,36.7,39.7,27.31,68.18,36.46,32.81,60.88,20.84,67.58,26.93,21.82,88.44,23.15,62.61,143.41,45.06,30.14,83.07,31.72,103.26,54.46,44.1,66.59,53.09,98.81,41.37,58.17,68.71,35.13,77.76,38.55,58.54,82.92,39.96,517.56,42.47,34.42,102.12,17.01,74.75,55.19,113.92,37.98,61.28,11.36,30.87,68.27,65.88,52.35,72.58,49.43,59.62,46.19,65.75,13.78,34.95,25.18,47.07,293.74,42.79,62.73,34.9,43.35,63.91,33.01,107.31,89.41,59.46,39.15,38.25,27.9,45.9,11.42,28.65,71.58,38.67,62.34,56.87,155.23,35.07,66.43,23.86,103.49,132.74,44.84,164.81,33.78,57.49,59,92.96,12.01,45.06,15.73,133.56,71.81,64.89,42.24,27.84,29.24,38.23,77.64,112,21.835,61.04,35.02,29.18,37.89,51.93,27.59,61.79,115.27,31.32,16.88,75.13,27.54,40.06,13.59,150.82,58.93,11.21,108.81,145.56,176.16,37.76,204.72,84.8,53.38,53.36,42.02,32.64,164.19,33.15,47.62,92.77,49.55,21.26,96.07,115.01,46.51,62.11,18.93,15.4,78.8,44.76,12.23,741.5,62.4,46.34,46.5,21.94,17.61,55.63,87.38,78.97,21.11,69.49,42.98,40,39.77,53.95,29.99,16.37,44.86,23.15,46.49,96.48,39.52,7.58,23.32,51.76,40.1,66.59,87,61.84,7.78,11.99,77.11,33.57,15.07,104.11,36.36,58.2,9.3,32.28,57.83,88.07,36.18,9769.2305,170.42,33.08,15.64,39.85,90.69,45.5,54.44,58.25,27.66,221.63,55.91,37.71,46.58,135.35,56.02,71.25,38.12,59.56,31.1,80.34,34.72,53.13,62.42,22.85,50.84,75.12,70.95,80.34,12.49,21.632065,25.375364,18.342482
1/24/2013,44.66,24.39,87.06,97.49,90.95,93.31,4.48,6.99,46.81,33.77,75.32,22.66,61.48,22.3,91.35,38.74,41.7,20.24,30.3,53.16,73.1,157.53,21.5,12.6,77.22,69.83,69.76,35.26,21.71,47.69,145.78,44.9,46.51,53.96,63.23,38.2,34.27,36.83,30.56,138.34,39.92,35.52,66.09,13.81,159.56,45.72,53.1,70.42,106.19,29.51,73.98,37.81,27.06,61.15,78.73,58.56,57.28,55.52,43.7,35.27,40.1,69.43,44.01,58.99,47.27,18.77,118.69,35.94,37.11,46.52,122.68,27.63,93.79,13.87,29.4,7.67,41.54,99.23,40.18,67.57,64.61,47.78,31.97,9.31,58.21,78.4,73.17,42.39,90.14,273.62,162.16,39.14,101.61,37.81,59.05,55.67,89.76,109,43.57,26.85,70.64,70.77,144.48,110.02,43,80.02,93.97,29.03,42.72,214.31,32.4,66.5,60.41,52.85,78.02,23.67,58.15,12.19,42.3,37.73,83.82,28.345,32.18,37.46,154.43,27.84,22.6,83.24,64.47,68.51,38.59,56.12,124.99,14.26,357.57,56.86,30.91,52.06,44.21,64.83,63.45,83.06,33.56,46.37,226.47,50.88,63.82,28.78,27.83,57.97,58.45,67.75,101.73,67.8,21.02,54.29,72.88,31.08,81.6,20.31,581,65.69,100.7,93.57,28.26,39.3,23.65,118.6,42.51,73.97,53.81,96.6,67.35,54.47,34.34,67.06,37.96,85.31,73.76,34.18,91.8,60.5,55.6,32.17,94.55,55.2,38.41,33.56,26.5,86.43,43.24,72.1,57.31,37.6,22.09,28.32,39.99,36.87,36.8,41.1,27.42,68.28,36.6,32.8,61.28,20.98,68.65,27.01,21.72,88.23,23.47,63.39,143.98,44.73,30.28,82.62,31.55,146.86,54.57,44.19,67.78,53.86,103.22,41.51,58.59,68.23,34.88,76.93,38.58,58.8,83.4,41.06,522.26,42.39,33.93,102.89,17.01,75.01,56.31,114.33,38.04,61.93,11.45,30.8,68.24,66.6,51.97,73.86,49.16,60.76,47.77,67.21,13.93,35.16,25.28,47.79,299.62,42.59,62.31,35.81,43.42,63.84,33.41,107.6,89.15,60.92,38.97,38.1,27.98,46.45,11.53,28.55,71.7,38.9,62.5,57.27,154.5,34.63,66.88,24.13,106.37,132.89,44.82,165.79,33.75,57.5,59.28,94.55,12.16,46.37,15.73,134.28,72.23,64.4,41.98,28.38,29.42,39,78.09,113.87,21.44,61.86,34.65,29.59,37.77,52.63,27.77,62.2,115.46,31.5,16.91,74.32,27.4,40.55,13.48,151.73,59.3,11.09,109.77,144.96,173.14,38.64,204.42,84.77,55.19,53.79,42.8,33.18,165.38,33.25,48.56,93.24,49.48,21.72,93.25,115.5,46.52,62.52,18.93,15.34,78.09,44.01,12.16,753.83,62.54,47.03,47.32,22.05,17.73,56.73,88,79.63,20.95,69.79,43.19,39.58,39.91,53.95,30.39,16.39,45.47,23.13,46.64,97.31,39.44,7.75,23.25,52.86,39.52,62.37,86.58,61.86,7.83,12.15,77.17,34,14.67,104.02,36.42,56.54,9.24,31.74,58.44,88.92,36.51,9615.3799,172.29,33.09,15.81,37.46,91.61,45.81,55.51,58.29,27.76,221.99,56.22,37.23,46.69,133.84,56.34,71.34,38.45,59.71,30.94,80.75,35.47,53.61,61.57,22.94,51.09,76.53,71.24,82.14,12.51,21.449783,25.264517,18.458014
1/25/2013,45.29,24.82,87.79,99.76,92.61,93.72,4.46,6.93,47.18,33.78,75.03,22.63,61.79,22.44,91.73,39.69,41.75,20.33,30.21,53.21,73.92,158.05,22.57,12.83,76.87,69.69,71.21,35.66,22.13,48.28,148.97,45.25,47,54.34,64,38.62,34.29,37.65,30.78,138.42,40.27,35.69,66.65,13.87,159.84,45.03,53.32,73.25,106.62,29.6,74.66,38.47,27.21,61.09,78.71,59.02,57.7,56.45,43.48,35.34,40.13,71.55,44.14,59.78,46.71,19.36,120.86,36,37.05,46.61,123.93,27.88,94.02,13.68,29.35,7.69,42.33,99.35,40.64,67.56,66.06,47.68,32.17,9.45,57.62,79.36,73.44,42.51,89.26,283.99,162.35,39.09,103.12,39.72,58.87,56.05,89.42,109.46,43.91,27,70.96,71.13,144.93,109.68,43.46,81,94.37,28.97,43.62,217.09,32.33,69.34,61.06,53.25,79.51,23.59,58.48,12.41,43.07,37.74,84.59,28.51,32.14,37.6,154.27,27.99,22.7,84.15,65.09,68.7,38.77,56.81,125.27,14.77,365.36,56.32,30.87,51.86,44.45,64.99,63.55,83.38,33.515,47.16,230.28,51.32,63.71,29.07,27.78,58.09,57.94,67.7,102.57,67.92,21.15,54.98,73.41,31.54,81.72,20.15,577.82,66.17,102.47,95.86,29.11,39.47,23.75,118.83,42.78,74.36,54.19,95.58,67.82,56.05,34.48,66.78,38.1,85.34,74,34.63,92.17,60.54,56.76,32.08,94.5,57.34,38.58,33.71,26.66,84.27,43.47,72.5,57.52,38.99,22.24,28.46,42.96,37.25,36.85,41.07,27.55,69,36.7,32.79,61.87,21.67,68.67,27.08,21.76,88.36,23.71,66.49,144.21,44.9,30.53,83.42,31.83,169.56,56.81,44.46,68,55.55,105.43,41.89,58.84,67.74,35,77.63,38.77,58.6,84.06,41.05,519.42,42.51,34.16,102.36,16.99,75.25,55.98,114.53,37.15,62.2,11.44,31.11,68.33,66.98,56.34,74.93,51.12,61.95,48.23,67.19,14.17,35.14,25.23,48.08,303.48,42.67,64.17,36.69,43.8,64.59,33.45,108.3,89.65,63.22,39.56,38.32,27.7,46.42,11.62,28.89,72.09,39.12,62.75,57.47,154.47,34.83,67.38,24.19,107.46,134.48,45.96,165.51,34.02,57.2,59.34,94.68,12.17,46.84,15.73,134.82,72.49,63.66,42.19,28.75,29.57,38.74,78.35,115.61,21.05,61.54,34.87,29.72,38.5,52.85,28.2,62.8,116.98,30.95,17.19,73.45,27.62,41.15,13.53,152.7,59.5,11.09,110.15,144.46,174.48,39.05,204.97,85.45,56.53,53.88,42.91,33.54,170.08,33.3,48.96,93.47,49.49,22.33,92.39,116.2,46.8,62.75,18.62,15.78,77.85,43.36,12.24,753.67,63.25,48.46,46.85,22.29,18.36,58.08,88.66,79.9,20.96,69,43.54,39.76,40.32,54.38,31.01,16.37,45.12,23.29,46.72,97.39,39.67,7.93,23.23,53.94,41.84,61.87,86.26,61.97,7.87,12.15,77.54,33.67,14.97,103.99,36.53,55.88,9.29,31.84,58.9,89.79,36.64,9769.2305,173.86,32.8,16.05,38.23,92.09,45.87,55.98,59.09,27.84,225.25,56.04,37.2,47.03,134.77,56.51,72.21,37.31,59.89,31.23,81.44,36.15,53.48,62.11,23.18,51.47,77.29,71.9,82.45,12.47,21.445541,25.298622,18.192972
1/28/2013,45.18,24.79,87.16,98.95,92.75,94.36,4.51,6.94,46.97,33.52,74,22.48,61.51,22.26,91.11,39.78,41.74,20.25,29.7,52.64,73.62,157.24,22.2,12.96,76.58,69.95,70.75,35.38,21.89,47.95,147.69,45.1,46.92,54.45,64.01,38.84,34.15,37.63,30.79,137.64,40.09,36.46,66.6,13.88,156.35,45.11,53.25,73.77,105.47,29.6,74.73,38.5,27.56,60.31,77.73,58.73,57.66,56.39,44.14,35.15,40.26,71.41,44.86,58.51,47.45,18.93,120.1,36.01,37.01,46.1,123.54,27.911,94.48,13.78,29.27,7.71,42.2,99.27,40.93,67.74,65.78,47.19,31.99,9.25,57.47,39.44,72.65,42.12,88.8,276.04,162.71,38.06,101.35,40.28,58.74,55.53,89,108.83,43.53,26.84,70.01,70.51,145.07,106.29,42.93,79.41,93.82,28.64,43.13,216.65,32.63,68.11,60.75,52.83,79.28,23.58,58.46,12.61,41.91,37.38,84.06,28.23,32.54,36.89,154.53,27.84,22.31,83.73,64.34,67.35,38.57,57.09,124.2,15.04,369.52,56,31,51.34,44.35,65.44,63.78,83.13,33.51,46.64,228.19,51.54,63.88,28.83,27.81,58.15,58.24,67.32,103.01,67.63,21.06,54.56,72.23,32.469,80.89,20.1,577.93,66.06,102.77,94.74,29.12,39.14,23.27,118.5,42.28,74.58,53.95,97.45,67.58,56.25,34.46,67.54,38.81,84.66,73.62,33.25,92.44,60.71,58.17,31.11,94.3,57.08,38.35,33.86,26.76,84.26,43.32,72.4,57.25,38.86,22.32,28.25,42.88,37.41,36.72,40.99,27.4,68.82,37.3,33,61.38,20.96,68.65,27.09,21.31,88.01,23.78,66.66,140,44.64,30.68,85.59,31.7,162.11,56.02,44.49,67.43,54.5,105.66,41.76,58.41,66.57,35,77.74,38.52,59.01,83.84,40.98,514.12,42.42,34.48,102.49,17.02,75.94,55.52,113.65,36.95,62.25,11.43,31.78,68.92,66.66,56.1,74.76,51.41,60.19,48.17,67.51,13.94,35.11,25.26,48.64,311.69,42.77,63.84,36.41,44.03,64.45,33.7,107.56,90.09,62.36,40.1,38.24,27.92,46.49,11.48,28.75,72.18,39.03,62.46,57.29,152.77,34.87,66.79,24.18,106.18,136.01,46.5,164.09,34.13,56.83,59.7,94.5,12.13,47,15.37,135.21,72.61,63.67,42.33,28.68,29.53,39.39,77.35,114.99,21.31,61.13,34.57,29.73,38.66,51.8,27.99,63.01,115.91,30.06,17.25,73.38,27.99,40.69,14.02,153.44,59.07,10.85,110.15,144.15,170.9,38.69,204.93,85.17,55.95,53.75,42.34,33.04,168.83,33.72,49.11,93.99,49.25,22.66,89.32,116.04,46.85,61.24,18.64,16.06,77.21,42.82,12.15,750.73,63.14,48.73,45.92,22.5,18.13,57.75,90.34,78.88,21.05,69.35,43.38,39.57,40.25,54.36,31.18,16.18,45.14,23.16,46.41,97.12,40.1,8.23,22.99,53.2,41.74,61.23,86.8,61.97,7.82,12.3,77.84,33.87,15.03,103.13,36.25,54.87,9.2,31.95,62.48,89.8,36.45,9846.1504,178.07,33.04,16.1,39.14,90.54,45.9,55.65,58.87,27.8,222.69,55.81,36.84,46.77,132.87,56.47,72.1,37.02,59.64,30.7,81.52,36.38,52.99,62.72,23.26,51.15,76.25,71.63,82.51,12.51,21.415867,25.238934,18.233749
1/29/2013,44.64,24.89,87,99.2,92.64,94.92,4.57,6.89,46.51,33.93,73.65,22.53,63.81,22.5,91.76,39.94,41.97,20.53,27.94,54.32,74.41,155.98,21.58,12.8,76.86,70.73,70.42,35.27,21.91,48.28,147,45.52,47.29,54.99,64.06,38.83,34.25,37.72,30.9,137.92,40.6,36.31,66.86,13.92,156.66,45.54,53.49,75,106.54,29.87,75.49,37.64,27.78,59.41,77.89,58.76,57.92,56.04,43.57,35.01,40.73,68.73,44.87,58.08,47.24,18.97,119.85,36.14,37.42,46.22,122.39,28.01,94.82,13.14,28.89,7.71,42.13,101.57,40.74,68.09,65.98,47.04,32.42,9.2,57.62,39.9,72.88,41.9,88.65,260.35,162.79,38.11,99.25,40.88,58.96,55.68,88.91,108.85,43.82,27.7,69.25,71.17,146.5,109.36,43.66,80.56,94.15,28.62,42.93,218.61,32.3,66.14,61.66,51.35,79.95,23.88,58.77,12.34,42.68,36.66,84.28,28.58,32.51,37.31,155.05,28.03,22.59,85.38,64.89,68.03,38.58,59.88,126.94,14.95,361.95,55.62,30.93,51.34,44.62,64.14,63.8,84.38,33.27,47.12,229.08,51.77,63.88,28.45,27.83,57.75,58.25,67.78,102.5,67.98,20.78,56.96,71.69,30.79,82.51,19.82,574.43,65.95,104.56,93.99,29.26,38.95,23.07,119.2,42.69,74.92,54.39,98.6,67.2,55.06,34.69,69.65,43.77,84.94,74.12,34.01,91.92,61,57.72,31.82,94.88,56.38,38.23,33.89,27.27,85.84,43.67,72.61,57.54,38.86,22.52,28.29,42.8,33.91,36.65,41.29,27.59,68.62,37.82,33.33,61.79,21.11,71.97,27.28,23.82,88.88,24.02,66.57,141.06,44.98,30.92,86.59,31.77,169.12,55.6,45.02,67.35,53.92,104.81,42.12,58.82,66.77,35,77.9,38.88,58.94,85.11,40.62,518.48,42.685,34.57,103.36,16.48,74.57,55.47,114.98,37.26,62.58,11.33,31.82,69.09,68.24,55.82,74.52,51.02,60.4,48.55,67.92,13.68,35.27,25.55,46.11,310.01,43.5,64.55,36.54,44.15,65.05,33.7,109.26,89.89,62.01,40.21,38.52,27.97,46.64,11.49,29.31,71.61,38.72,62.85,57.47,156.95,34.89,67.39,24.28,106.69,137.91,45.9,163.16,34.68,58.74,59.99,95,12.12,47.16,15.31,136.71,72.94,63.45,42.12,28.83,29.71,39.95,77.81,117.37,21.17,61.34,35.01,29.91,39.42,52.75,28.33,63.11,116.05,30.58,17.16,72.56,27.96,40.18,14.06,154.22,59.45,10.7,110.91,147.1,174.96,37.76,203.9,85.64,55.66,54.36,42.16,32.75,167.95,33.58,49.51,95.05,47.09,22.92,89.85,117.21,47.11,63.26,18.69,15.99,77.79,43.39,12.23,753.68,63.72,48.91,46.39,22.5,18.28,57.47,90.16,78.62,21.28,69.89,43.52,39.11,40.63,53.99,31.33,16.27,45.52,23.34,46.54,97.24,40.06,8.14,23.56,54.52,41.73,61.87,88.14,61.91,7.58,12.15,78.82,33.53,14.42,103.42,36.16,54.9,9.26,32.58,68.11,89.76,36.36,9846.1504,174.69,32.67,16.47,39.78,90.4,45.99,55.66,58.75,27.71,216.45,56.28,36.9,47.21,134.76,56.96,71.7,37.22,60.27,30.51,81.82,35.93,53.35,64.01,23.23,51.47,75.91,72.47,82.21,12.56,21.56848,25.264517,18.458014
1/30/2013,44.4,24.61,86.73,98.47,92.14,94.67,4.48,6.97,48,33.55,74.59,22.46,62.84,22.21,90.67,39.13,42.04,20.51,27.91,54.15,74.09,153.45,21.58,12.86,77.05,68.89,70.39,34.97,21.98,48.09,145.74,45.73,47.02,54.92,63.75,38.47,34.42,37.25,30.73,135.64,40.22,36.05,66.67,13.82,155.01,45.58,53.36,75.08,105.65,29.8,75.11,37.13,27.9,59.88,78.11,59.33,58.12,55.92,43.56,34.89,40.4,66.98,44.75,58.54,48.18,20.11,118.28,38.44,37.5,45.93,123.49,27.85,92.85,12.93,28.53,7.81,41.96,100.07,40.05,67.19,65.01,46.3,32.43,9.08,57.72,39.85,72.24,41.77,88.88,272.764,161.38,38.08,99.34,40.2,58.78,55.59,87.65,106.51,44.21,27.51,68.43,70.84,144.6,108.72,43.5,80.24,93.28,28.69,42.8,218.55,32.72,66.6,61.09,49.9,78.6,23.86,58.8,12.32,41.6,38.07,84.12,31.66,32.54,36.93,153.4,27.6,22.98,84.36,65.12,68.49,38.04,60.76,126.32,15.08,364.85,56.56,30.56,51.65,44.53,63.56,63.38,82.47,33.37,47.13,230.49,51.97,63.06,27.94,27.73,57.07,58.35,67.79,101.37,68.44,20.58,57.75,71.45,31.24,81.63,19.57,573,65.39,101.99,94.44,28.95,38.93,22.98,117.71,42.51,75.08,54.31,98.65,67.24,54.49,34.72,69.13,43.75,83.9,73.66,34.43,91.74,60,57.4,31.15,94.76,56.82,38.21,34.3,27.1,85.88,43.36,72,56.95,38.73,22.13,28.2,43.17,33.89,36.66,40.92,27.47,68.84,37.67,33.22,61.54,21.05,72.89,27.31,23.06,87.99,23.64,65.66,140.23,44.68,30.88,85.38,31.62,167.7,56,45.11,67.9,53.61,104.95,42.39,58.71,66.34,34.99,78.02,39.15,58.69,85.32,39.81,516,42.42,35.05,102.53,16.4,73.53,54.26,114.88,37.11,63.33,11.24,31.54,68.67,67.6,55.17,74.37,49.86,60.66,48.15,67.14,13.84,34.97,25.66,46.85,308.36,43.61,65.18,36.62,44.17,64.59,33.7,108.23,88.12,61.26,40.14,37.94,27.94,46.66,11.38,29.7,70.96,38.89,63.37,57.21,156.94,35.1,66.86,24.26,104.11,137.32,45.52,162.31,34.48,56.83,59.83,95.35,12.04,46.77,15.43,138.9,73.21,63.53,42.02,28.72,29.7,39.54,77.58,116.21,21.56,60.98,35.16,29.01,39.17,52.5,28.28,63.29,115.52,29.89,16.78,70.94,27.74,40.4,14.15,153.82,59.33,10.88,110.85,147.15,174.76,38.59,203.52,85.16,55.78,54.52,41.95,32.84,167.42,33.77,49.41,94.94,46.9,23.07,88.21,116.45,46.35,63.02,18.66,15.9,78.28,43.12,12,753.83,62.87,48.04,44.65,22.23,18.22,56.32,89.73,76.95,21.37,69.75,43.12,39.03,40.99,53.79,31.25,16.33,45.59,23.02,46.6,96.88,39.87,8.16,23.65,53,41.64,62.34,88.15,61.82,7.65,11.98,78.68,35.74,14.3,103.31,36.54,54.15,9.38,32.28,67.88,89.1,36.22,9846.1504,172.3,32.82,16.51,39.78,90.06,46.59,55.58,58.01,27.76,214.38,56.08,37.17,47.64,131.17,56.78,72.34,37.24,59.47,30.16,80.32,36.54,52.46,64.5,23.15,51.62,75.18,71.51,81.23,12.35,21.526085,25.076927,18.532776
1/31/2013,44.78,24.8,86.34,98.96,91.57,95.29,4.57,6.96,47.5,33.61,73.87,22.49,59.52,22.12,89.97,39.42,41.94,20.44,28.18,53.69,73.92,157.6,22.38,12.91,76.83,68.87,72.14,35.24,21.77,48.02,147.58,46.29,46.39,54.82,63.86,38.24,34.21,37.34,31.01,129.79,40.49,36.38,66.29,13.75,157.91,45.37,53.38,75.16,105.23,30.29,75.09,37.48,27.74,59.7,75.92,60.35,57.84,55.65,43.68,34.61,40.45,73.16,48.5,58.7,47.9,20.18,118.87,38.51,37.24,44.52,125.22,27.45,93.11,12.95,28.37,7.78,41.76,98.73,39.9,67.27,64.83,46.01,32.44,9.17,57.74,39.45,72.4,41.42,88.63,265.5,160.18,38.39,100.51,40.68,58.7,55.23,88.16,105.28,43.9,27.28,66.3,70.43,143.93,115.38,43.25,80.02,92.97,28.53,42.8,217.82,32.69,66.66,58,50.68,78.05,24,58.34,12.26,41.54,37.65,84.04,31.66,32.51,36.69,153.78,27.28,22.85,83.76,64.7,67.17,37.89,60.57,124.98,15.73,369.7,56.32,30.28,51.2,44.23,62.83,62.65,82.55,33.42,47.05,229.17,51.48,62.38,28.09,27.79,55.39,57.95,67.57,101.45,68.74,20.57,57.19,70.65,30.981,81.02,19.63,574.38,64.82,101.66,103.67,28.98,38.88,23.25,117.45,42.44,75.05,54.28,98.39,66.92,55.56,34.87,69.18,43.73,85.33,74.14,34.3,92.65,59.93,56.71,31.34,94.35,56.64,38.19,34.36,27.03,86.39,43.37,72.05,56.95,38.88,22.03,28.27,43.41,33.98,36.49,40.99,27.78,69.38,37.83,33.88,61.47,20.74,74.21,27.16,23.66,87.43,23.2,65.25,137.87,43.81,31.18,85.46,31.77,165.24,56.12,45.29,67.84,54.05,104.88,42.64,58.5,65.04,35.48,78.18,39.43,58.39,88.27,39.99,518.4,42.26,35.77,102.34,16.51,73.52,56.78,115.41,37.63,64.34,11.21,31.89,68.24,68.03,54.91,74.36,50.62,59.41,47.06,66.15,13.89,34.83,25.7,47,307.01,43.61,65.75,36.14,43.64,64.6,33.68,107.79,89.19,61.25,39.98,37.83,27.93,46.6,11.32,29.5,71.41,38.72,63.31,57.25,156.77,35.05,66.32,23.77,105.58,136.88,46.28,162.14,34.79,56.56,59.72,93.99,12.11,46.22,15.43,138.75,72.85,66.02,41.72,28.76,29.44,39.51,78.46,117.54,23.94,60.41,35.25,28.97,39.17,52.78,27.25,63.71,114.83,30.12,16.79,70.52,27.65,40.71,14.23,153.93,58.81,10.84,107.37,147.86,173.94,38.83,203.07,84.46,55.97,54.11,42.16,32.68,166.48,33.45,49.68,94.06,46.2,22.77,86.87,115.15,47.35,63.42,18.72,16.26,79.45,42.96,12,755.69,60.93,48.11,44.78,22.28,18.39,56.13,89.5,76.15,21.04,69.95,42.9,38.08,40.73,53.88,31.44,16.29,45.18,23.31,46.81,96.93,39.96,8.01,23.48,52.42,41.14,62.35,89.51,61.8,7.56,14.41,78.41,35.24,14.28,102.69,36.71,52.68,9.4,32.65,67.16,87.57,36.13,9769.2305,172.13,33.08,16.53,40.5,89.93,46.5,55.71,57.88,27.7,215.43,55.21,37.11,48.19,131.46,56.88,71.89,37.37,59.29,30.23,80.38,36,53.06,63.57,23.2,51.39,74.18,71.15,79.29,12.32,21.428585,25.273039,18.505587
2/1/2013,45.29,25.21,87.55,101.44,93.09,95.95,4.395,7.08,47.59,34.21,74.87,22.68,60.3,22.8,90.04,39.25,42.13,20.56,28.33,54.2,74.18,156.75,22.32,13.17,77.37,69.6,74.78,33.74,22.12,47.25,147.87,46.01,46.69,55.35,64.53,39,34.51,38.2,30.52,126.11,40.49,36.3,67.05,13.78,158.56,46.53,53.43,75.92,103.19,30.37,76.29,37.74,28.16,59.43,75.22,60.54,59.04,56.36,43.4,35.42,41.15,74.03,47.58,59.22,47.65,20.33,116.26,38.71,37.54,45.59,126.37,27.93,94.34,13.02,29.1,7.88,42.47,98.36,40.48,67.84,65.83,46.98,32.68,9.3,56.13,40.56,73.87,42.35,89.79,265,161.97,38.8,105.28,41.08,59.28,55.12,88.13,105.1,44.84,27.63,65.88,71.32,144.61,112.74,41.83,81.18,93.85,28.67,43.35,219.62,33.07,66.42,58.82,51.01,79.7,24.05,58.88,12.37,41.07,38.22,85.15,31.33,32.54,37.18,154.28,27.39,23.51,85.36,65.44,67.77,38.5,62.75,128.6,16.19,374.88,56.5,31.12,51.58,44.01,62.9,63.04,84.12,34.49,47.85,229.96,52.05,62.9,28.17,28.22,54.73,58.11,68.47,102.76,68.84,20.83,58.02,71.22,29.73,82.08,19.84,583.67,65.32,102.42,103.96,29.5,39.37,23.21,119.29,43.5,75.73,54.53,99.49,67.3,56.9,35.37,70.34,44.85,85.59,71.26,34.09,93.39,60.47,57.98,31.43,95.19,56.62,38.56,35.06,27.19,87.88,44.08,72.28,57.52,38.94,21.92,28.89,44.34,33.67,37.16,41.47,28.01,70.31,38.86,33.87,62.42,20.35,76.21,27.35,23.35,88.73,24.69,67.27,140.56,43.88,31.17,86.3,32.09,164.8,56.86,45.24,68.77,53.7,105.96,42.6,58.65,65.13,35.88,78.98,39.8,58.87,87.68,40.12,518.71,42.45,36.26,104.15,16.46,73.66,57.9,116.72,38.26,64.73,11.23,31.82,69.15,68.94,55.76,75.35,52.26,59.55,47.55,66.89,13.82,35.13,25.83,46.77,312.71,44.56,64.77,36.91,44.67,64.84,34.2,109.19,90.9,62.11,40.29,38.34,28.01,46.92,11.71,29.55,73.08,39.15,63.97,58.08,156.02,35.43,67.15,23.62,103.98,139.77,46.3,163.84,35.51,56.88,60.46,97.87,12.25,46.28,15.4799,140.88,72.67,66.73,42.41,28.89,29.57,39.51,79.89,119.92,24.33,61.15,35.73,28.66,32.68,53.18,27.77,64.19,116.34,30.39,16.69,71.49,26.79,41.81,14.38,155.5,59.91,11.05,109.84,149.9,172.88,39.33,205.18,85.4,57.21,54.17,43.02,32.97,161.54,34.52,50.66,94.65,46.28,22.86,87.22,116.5,47.84,61.37,19.08,16.11,80.14,43.71,11.91,775.6,62.72,48.33,45.44,22.62,18.55,55.72,90.47,76.65,21.355,70.49,43.03,38.6,41.18,54.59,31.03,16.49,45.37,23.38,47.17,98,40.31,8.02,23.39,52.76,41.72,63.38,90.01,63.2,7.83,13.82,79.16,35.49,14.12,103.92,36.79,52.67,9.47,32.86,68.21,89.84,36.86,9923.0801,175.06,33.72,16.75,41.42,93.41,46.84,56.02,58.84,27.89,217.88,55.77,37.66,48.19,133.96,57.05,73.8,37.65,60.65,30.25,80.74,36.25,53.06,64.37,23.5,52.36,74.51,73.5,79.97,12.51,21.810104,25.358309,18.668694
2/4/2013,44.26,24.7,87.14,98.59,90.82,94.6,4.47,7.02,47.15,34.17,75.21,22.68,59.33,22.83,89.15,38.8,41.75,20.53,28.34,53.55,74.11,154.9,22.24,13,76.24,68.62,72.44,33.51,21.65,47.42,147.03,45.21,46.7,49.45,63.77,38.16,33.96,37.23,30.33,125.93,39.97,35.92,66.96,13.43,156.65,46.04,53.31,75.25,102.01,30.13,76.48,37.7,27.95,58.59,74.86,59.15,58.28,55.94,43.42,35.1,40.91,72.68,47.39,58.35,47.6,20.11,116.13,38.37,37.35,44.95,124.76,27.44,93.89,12.88,28.69,7.81,42.05,97.56,40.26,67.2,65.11,46.12,32.52,9.15,54.9,39.59,73.28,42.12,88.86,259.98,162.51,38.58,105.75,40.86,58.94,54.5,87.33,104.5,43.93,27.17,64.57,70.73,143.07,111.61,40.85,80.5,92.51,28.44,42.57,217.14,32.81,66.86,58.03,51,79.45,23.65,58.35,12.16,40.55,37.61,85.16,30.66,31.97,37.28,153.59,27.6,22.88,83.57,64.67,67.35,37.98,61.22,127.29,16,367.05,56.39,30.52,51,43.81,61.79,62.3,83.09,33.76,47.68,228.91,51.28,62.09,27.96,27.88,54.46,57.7,67.5,103.39,68.35,20.82,57.18,70.49,28.109,80.88,18.51,573.61,64.82,102.27,102.16,28.88,39.15,23.13,117.48,43.33,75.5,53.53,98.26,66.36,55.95,34.76,69.94,44.9,84.5,70.17,33.75,92.63,59.96,56.98,30.79,94.21,56.05,37.94,34.31,26.89,86.65,43.71,71.99,56.58,38.53,21.65,28.64,44.61,33.8,36.45,40.78,27.74,69.51,38.19,33.5,62.12,19.68,76.8,27.19,22.86,87.14,25.25,65.16,138.94,43.66,31.15,85.74,31.23,174.74,56.09,45,68.31,53.66,105.7,42.11,58.1,64.38,35.83,77.77,39.6,58.69,87.99,39.58,514.22,42.07,35.18,102.48,16.18,72.23,56.73,114.89,38.78,63.75,11.18,31.38,68.56,68.6,55.82,78.86,50.75,59.85,46.97,66.03,13.86,34.76,25.76,46.38,310.19,44.52,62.17,36.52,44.05,64.1,33.89,108.77,89.97,60.99,39.77,38.1,27.55,46.25,11.48,29.25,71.54,38.49,63.64,57.49,154.57,35.08,65.31,23.31,101.87,138.75,45.64,163.24,35.23,56.28,60.43,95.22,12.03,45.52,15.45,141.33,72.45,65.64,41.86,28.59,29.04,38.72,78,119.67,23.53,60.85,35.34,28.17,31.55,52.55,27.28,63.71,116.42,30.47,16.41,70.19,26.53,41.36,14.57,156.39,59.41,10.92,108.73,147.52,170.68,38.86,203.79,84.49,55.69,54.07,42.21,32.59,162.38,34,49.63,93.15,45.68,23.82,86.7,115.2,47.49,61.09,18.9,15.76,79.69,44.1,11.79,759.02,61.05,47.91,44.63,22.31,18.27,54.91,89.84,76.46,21.16,69.63,42.78,38.19,40.99,53.9,30.75,16.2,44.14,22.94,46.84,96.51,40.01,7.94,23.32,51.78,41.96,62.78,89.3,62.49,7.76,13.34,79.72,34.84,13.99,102.7,36.55,53.02,9.37,32.71,67.49,89.54,36.66,9846.1504,172.76,33.27,16.39,40.74,93.06,46.93,55.38,57.66,27.67,214.74,55.75,36.96,47.62,131.99,56.86,72.82,37.43,59.55,30.01,80.76,35.68,52.85,63.91,23.28,51.8,73.31,72.48,79.91,12.4,21.572714,24.966078,18.655102
2/5/2013,45,24.39,87.8,99.76,91.59,94.91,4.53,7.12,48.01,34.72,75.89,22.95,60.08,23.06,89.74,39.78,42.13,20.67,29.02,54.1,74.66,155.75,22.39,13.42,77.47,68.86,74.79,34.06,22.16,48,148.74,45.38,46.51,45.09,65.1,38.58,34.25,37.61,30.75,126.37,39.57,35.97,66.55,13.62,159.53,46.28,53.36,75.7,102.21,30.16,73.58,38.18,28.35,59.6,75.76,59.35,59.18,56.17,43.46,35.43,40.57,73.31,48.49,59.51,48.33,20.54,116.41,38.76,38.14,45.54,125.75,27.495,94.68,13.18,28.76,7.93,42.39,98.09,40.28,68.28,65.54,46.23,32.62,9.17,55.74,40.54,74.31,42.79,89.48,266.89,161.76,39.28,106.94,40.91,59.52,55.11,87.96,104.02,44.31,27.51,65.14,71.17,144.94,110.89,41.43,82.6,93.95,29.38,42.72,218.7,32.99,67.6,57.72,51.43,80.16,23.72,60.38,12.44,40.97,37.51,87.67,30.87,32.31,37.2,152.56,27.15,23.4,85.24,64.98,69.51,37.7,61.01,128.82,16.89,368.77,57.13,31.02,51.72,43.63,62.84,62.8,83.6,34.5,48.79,227.52,51.74,63.07,28.59,27.95,54.16,57.87,68.89,105.07,68.88,21.08,58.09,71.3,28.64,80.8,18.68,573.61,65.84,103.15,103.54,29.42,39.69,23.3,118.71,43.53,75.79,54.06,98.44,66.39,56.24,34.64,70.81,45.7,85.66,68.21,34.25,93.08,60.68,56.78,30.99,95.25,56.39,38.33,34.83,26.92,86.54,43.81,72.16,59.37,39.06,21.64,28.96,45.09,33.96,36.92,40.9,27.78,70.3,38.75,33.84,62.6,19.74,76.68,27.39,23.72,87.49,26.81,67.5,138.37,44.68,30.99,86.53,31.37,174.387,56.2,44.85,68.95,53.89,106.25,42.35,58.5,64.88,36.14,78.34,39.7,59.92,88.41,39.59,520.69,42.71,35.41,103.31,16.61,73.27,58.85,116.58,39.37,64.29,11.27,31.39,69.88,69.2,56.55,80.63,51.95,61.88,47.6,67.01,13.93,34.85,25.87,46.63,305.01,44.56,63.72,36.51,44.68,64.98,34.18,111.92,90.69,61.1,39.95,38.51,27.77,46.77,11.88,29.83,72.22,38.56,63.87,56.91,156.59,35.74,66.28,23.83,103.36,140.13,46.84,163.16,35.35,56.36,60.05,95.32,12.16,45.54,15.46,143.54,73.15,66.95,42.33,28.84,29.6,39.85,78.65,121.62,23.59,62.4,35.7,28.17,30.91,53.48,27.59,63.96,117.39,30.97,16.55,71.06,26.64,41.05,14.84,156.94,60.66,10.99,109.46,150.45,169.94,38.84,202.79,84.56,56.42,54.31,42.92,33.29,164.91,34.22,50.13,93.39,46.31,23.74,87.01,115.81,48.11,61.25,19.42,15.93,80.02,44.33,11.96,765.74,64.71,48.5,45.6,22.54,18.37,55.38,89.98,76.73,21.1784,70.77,43.43,39.24,40.93,54.29,30.85,16.51,44.58,23.5,47.02,97.91,41.33,8.02,24.12,52.54,42.59,63.38,90.24,63.19,7.87,13.46,79.99,35.61,14.09,104.46,36.87,53.51,9.49,33.35,66.02,89.26,36.81,9846.1504,172.4,33.75,16.65,39.99,86.75,46.84,55.03,58.5,27.89,218.53,57.77,37.28,47.99,133.14,56.74,73.36,37.89,61.23,30.6,81.13,35.98,53.49,63.84,23.67,53.15,74.25,72.88,80.8,12.53,21.534567,24.949024,18.648302
2/6/2013,45.09,24.47,88.65,97.89,92.21,95.07,4.51,7.11,47.92,34.4,76.29,23.16,60.3,23.39,89.79,40.1,42.36,20.78,31.13,53.93,75.39,155.15,22.38,13.4,77.31,69.15,73.83,34.48,22.28,47.24,151.26,46.25,46.55,47.49,66.3,38.81,34.5,37.57,30.62,128.49,39.94,36.1,66.66,13.59,160.82,46.47,53.62,76.15,102.42,30.27,74.03,39.26,28.22,59.11,76.12,59.2,56.73,56.38,43.46,35.54,40.8,72.65,48.05,59.84,49.45,20.51,121.38,39.19,38.31,45.33,123.3,27.34,94.79,13.2,28.74,7.94,42.7,99.2,39.91,68.34,65.25,46.96,32.78,8.9,55.68,39.91,74.06,42.45,89.09,262.22,161.7,39.33,106.56,40.31,59.72,55.27,87.69,104.23,44.31,27.32,66.27,71.19,145.64,108.4,41.09,83.7,93.45,30.37,43.15,217.87,33.05,66.55,57.59,50.98,78.73,24.27,59.67,12.34,40.7,37.18,87.88,31,32.3,37.14,151.21,27.55,23.39,84.91,64.81,70.75,37.95,61.72,129.67,16.88,369,57.47,30.86,51.24,43.83,62.27,63.06,85.46,34.65,48.61,225.92,52.39,62.91,28.52,28,55.23,58.14,69.55,106.17,69.11,21.19,58.1,71.38,29.05,80.98,19.31,571.88,65.41,102.71,102.99,29.5,40.07,23.36,119.34,43.95,75.74,54.35,97.7,66.67,55.73,34.9,71.31,45.44,85.61,66.57,34.46,92.59,60.43,56.53,31.31,95.12,56.8,38.67,35.14,26.83,87.07,43.92,72.01,59.65,38.71,21.57,28.81,44.93,34.62,37,41.36,27.83,70,38.75,34.1,61.85,19.69,77.79,27.65,23.44,87.5,25.2,65.7,138.33,44.2,31.2,86.59,31.43,184.41,56.05,44.58,69.27,54.16,107.66,42.53,58.99,65.2,36.8,76.27,39.72,59.39,88.68,39.56,523.55,42.5,35.64,101.7,16.69,72.9,58.91,118.2,39.51,64.44,11.47,31.55,69.92,69.41,57.02,81.24,52.55,62.13,47.81,60.5,14.47,34.97,25.67,47.99,322.46,44.75,63.19,36.55,44.74,64.88,34.12,113.57,90.99,61.26,40.66,38.4,27.85,46.95,11.93,29.77,72.99,38.8,64.04,57.44,156.41,35.78,66.61,23.68,104.63,140.56,47,163.01,35.43,56.22,61.51,93.83,12.22,46.05,15.48,145.22,72.77,67.18,41.98,29.04,29.42,39.48,78.96,125.11,24.18,62.69,36.09,28.53,31.37,54.4,27.5,63.67,120.38,30.97,16.52,70.49,27.33,41.58,14.78,157.02,60.56,11.06,109.81,151.12,167.63,39.25,201.02,83.81,56.11,54.35,43.05,33.22,174.63,34.45,50,92.69,46.5,24,87.6,115.91,48.13,61.06,19.52,15.91,80.35,45.04,12.18,770.17,63.33,48.56,45.86,22.44,18.28,55.87,91,75.95,20.99,71.31,43.19,38.73,41.08,54.52,30.98,16.59,44.11,23.86,47.13,97.83,41.44,7.99,24.21,52.89,42.57,62.75,90.9,63.34,7.95,13.84,80.91,35.86,14.56,104.05,37.09,53.42,9.53,33.27,66.65,89.37,37.14,9923.0801,171.3,33.56,16.79,39.27,86.8,47.32,55.78,58.51,27.86,217.95,57.38,37.4,47.99,133.24,56.83,72.42,38.17,60.77,30.44,81.06,36.11,51.18,62.81,23.69,52.77,74.13,72.77,80.91,12.56,21.886404,25.153666,18.960924
2/7/2013,45.01,24.24,88.64,97.835,91.4,94.63,4.561,7.14,48.15,34,77.43,23.2,59.87,23.77,88.25,39.39,42.47,20.87,31.11,53.78,75.06,153.74,22.37,13.3,76.3,68.78,73.81,34.49,22.24,45.68,153.89,45.81,46.47,46.99,65.96,38.39,34.64,36.94,30.52,126.99,40.15,36.55,66.66,13.53,157.06,46.4,53.58,76.15,103.17,30.3,74.1,40.18,27.56,60.29,77,58.89,56.9,56.23,43.49,35.58,41.17,71.88,48.16,59.2,48.15,20.23,122.82,39.1,38.91,45.21,122.83,27.283,95.2,13.07,28.83,7.96,42.52,97.37,39.42,68.28,64.7,46.28,32.74,8.88,56.01,40.36,73.44,42.15,88.9,260.23,160.79,39.35,106.85,40.83,55.83,54.91,89.82,104.18,45.06,26.96,66.77,72.66,146.25,107,41,84.1,93.8,30.28,43.17,215.86,33.28,61.82,57.63,50.53,78,24.16,61.35,12.29,40.12,37.07,87.9,29.94,32.71,36.42,150.49,27.57,23.1,83.74,65.07,71,38.16,63.26,129.77,16.87,379.85,57.19,30.67,51.19,43.83,62.07,63.05,86.56,34.48,48.23,225.33,52.58,62.25,28.47,28.04,54.82,58.69,69.49,106.98,69.04,21.095,59.5,71.86,28.65,77.24,19.24,570.33,65.7,101.74,103.05,29.18,39.99,23.08,118.42,44.4,75.68,54.25,96.11,66.31,55.09,34.92,70.9,45.32,85.24,68.1,34.6,100.04,60.17,56.23,30.83,98.19,57.09,38.77,35.09,26.91,87.13,43.74,72.25,58.88,38.65,21.72,28.8,44.98,34.74,36.86,41.14,27.76,70.62,38.64,34.39,59.77,19.4,79.02,27.81,23.17,87.36,25.41,65.4,137.97,44.79,31.54,85.22,31.53,181.962,55.86,44.5,68.53,54.68,105,42.76,59,65.69,36.56,78.51,40,60.02,88.17,39.4,519.55,42.93,34.96,101.85,16.44,77.14,58.33,118.93,39.67,64.31,11.61,31.84,70.37,69.5,56.79,81.52,52.45,61.79,47.16,59.93,14.86,34.66,25.65,47.6,318.45,44.46,62.7,36.49,44.39,64.96,34.61,113.65,90.52,61.16,40.47,38.07,26.91,46.76,11.84,29.62,72.9,38.98,64.16,57.47,155.2,35.87,66.13,26.03,105.78,139.63,46.85,162.89,35.27,55.41,61.5,92.67,12.08,45.4,15.43,148.95,72.81,66.54,42.45,28.93,29.75,40.27,79.12,124.54,23.77,62.3,35.69,28.56,31.59,54.27,27.34,64.33,118.96,30.08,16.54,70.32,27.16,35.26,14.6,156.04,62.14,11.11,110.19,150.26,163.99,39.16,199.74,83.28,56.13,54.31,42.87,32.23,178.06,33.94,49.82,92.17,46.53,24.09,87.44,115.02,48.01,61.42,19.23,15.58,80.33,45.25,12.32,773.95,63.14,48.02,45.65,22.48,17.86,56.66,91.63,75.89,20.81,71.23,43.08,38.62,41.09,54.36,31.37,16.47,44.31,23.63,47,97.11,41.31,7.99,24.11,52.54,42.39,63.37,90.98,63.65,7.73,13.88,80.84,35.55,15.11,103.79,37.38,54.11,9.5,33.22,66.57,89.95,37.26,9923.0801,170.05,33.42,17.11,39.09,86,47.31,55.48,56.9,28.02,214.08,57.05,37.08,47.71,132,57.09,72.95,38.72,60.5,30.44,81.02,35.565,50.18,62.86,23.78,52.01,73.39,72.47,81.8,12.52,21.971193,25.034292,19.402657
2/8/2013,45.08,24.17,89.11,100.13,92.53,94.87,4.66,7.2,47.67,34.53,76.56,23.44,60.07,23.78,88.61,39.77,42.6,20.91,30.4,53.72,75.48,154.08,21.84,13.61,76.24,69,74.59,34.75,22.59,45.81,153.03,46.01,46.7,43.37,66.6,38.56,34.25,36.9,30.9,128.84,40.22,36.3,67.42,13.59,157.8,46.89,53.95,75.75,103.8,30.31,74.81,40.51,28.46,61.06,77.67,59.28,57.27,56.55,43.2,35.83,41.36,72.91,48.6,59.44,46.84,20.23,122.47,39.25,38.77,45.36,126.52,27.55,95.09,13.1,29.25,7.93,42.87,98.27,39.47,69.07,63.71,46.74,32.61,8.8,56.53,40.9,74.4,42.6,89.16,261.95,162.76,39.88,108.3,41.26,55.56,55.82,90.45,105.14,45.14,26.88,66.82,73.6,146.45,107.32,41.18,84.45,94.32,30.22,42.58,216.71,33.38,62.75,57.87,51.05,79.07,24.13,61.93,12.37,39.96,37.22,88.25,29.75,32.81,36.25,151.86,28.57,23.32,84.65,65.08,72.15,38.08,64.02,133.28,17.37,385.89,57.27,30.65,51.2,43.85,62.72,63.78,88.1,35.38,48.63,226.16,52.7,61.51,28.57,27.76,55.44,58.5,70.44,106.41,69,21.16,60.42,71.1,28.545,79.14,19.5,578.75,66.28,103.11,104.04,29.43,40.52,23.2,119.34,44.61,76.14,55.22,96.85,67.01,54.96,35.39,71.13,46.13,86.2,69.08,34.5,101.57,60.81,56.38,31.73,96.8,58.11,39.03,35.37,26.92,87.45,43.85,72.1,58.92,38.89,21.97,28.86,45.39,35.48,37.51,41.46,27.84,71.47,38.79,34.41,59.82,19.47,81.43,27.9,23.08,88.35,26.06,65.65,138.88,45.18,31.43,86.77,31.61,180.97,56.37,44.57,69,54.59,105.25,42.77,58.91,66.09,36.55,78.73,40.06,60.3,88.36,41.06,524.47,42.87,35.32,102.79,16.87,78.9,58.21,118.92,40.32,64.39,11.64,31.12,70.53,69.92,56.57,81.35,53.09,61.83,47.5,59.72,14.62,34.88,25.66,48.49,320.72,44.35,62.89,37.03,45.7,64.47,34.69,115.36,90.98,61.4,40.97,39.12,27.09,47.1,11.76,29.69,73.27,39.01,64.28,57.5,157.74,36,66.49,26.5,103.9,140.2,47.02,163.77,35.27,56.08,61.64,93.66,12.16,46,15.42,149,72.6,66.95,42.83,29.31,29.74,39.92,78.86,128.97,23.93,62.49,35.64,28.42,31.85,54.9,27.31,64.6,119.47,30.21,16.81,70.79,27.23,35.42,14.66,157.4,61.8,11.07,108.49,151.6,165.88,39.85,201.68,84.51,56.62,54.31,42.68,32.23,177.56,36.39,50.69,92.81,46.62,24.4,88.01,115.64,48.62,62.11,19.25,15.29,80.21,44.93,12.28,785.37,62.75,48.08,46,22.5,17.79,57.1,90.24,77.06,21,71.48,43.34,38.75,41.11,54.66,31.08,16.61,44.41,24.06,47.23,97.25,41.4,7.96,24.14,52.86,42.61,63.63,90.9,63.35,7.75,13.84,80.73,35.46,14.75,104.39,37.93,54.16,9.57,33.32,67.37,90.09,37.31,10384.5996,169.95,34.28,16.89,39.76,87.22,47.36,55.55,57.6,28.2,219.71,57.74,37.62,47.84,133.15,57.15,73.31,39.84,60.925,30.76,81.89,35.75,50.35,63.72,23.93,53.43,74.94,73.31,82.38,12.55,22.01358,25.068403,19.42305
2/11/2013,44.6,24.41,89.45,99.94,92.47,95.17,4.57,7.12,47.63,34.31,75.87,23.56,60.03,23.64,88.28,39.61,42.67,20.92,32.36,53.9,75.41,153.42,21.71,13.66,75.93,70.57,74.75,34.62,22.64,45.26,152.09,46.11,46.91,45.49,66.75,38.48,34.03,36.9,31.06,129.78,40.25,36.31,67.7,13.91,156.33,46.76,54.13,75.81,103.53,30.39,74.18,40.39,28.31,60.86,78.12,59.31,56.93,56.6,43.63,35.63,41.51,72.4,48.16,59.3,47.45,20.05,119.5,39.21,38.61,45.14,124.1,27.86,95.36,13.11,29.35,7.94,42.84,98.07,39.33,68.32,63.43,46.87,32.84,9.03,56.66,40.4,74.06,42.17,88.75,257.21,163.5,40.03,111.4,40.87,54.98,55.37,90.35,105.29,45.25,27.14,66.66,73.33,145.57,106.47,41.38,83.47,94.39,30.28,42.37,217.61,33.37,62.26,57.59,51.22,77.93,24.12,61.83,12.51,39.27,36.66,88.31,29.41,32.67,35.85,151.86,28.92,23.28,83.81,64.1,70.68,37.87,64.18,133.34,17.41,385.23,56.55,30.63,51.24,44.06,62.8,63.9,87.5,35.22,48.66,225.62,52.69,61.42,28.53,27.75,56.46,57.93,70.41,106.01,69.14,21.27,59.7,71.11,28.26,78.39,19.6,571.52,66.01,104.84,103.2,29.53,40.44,23.01,119.12,44.6,75.76,55.36,96.6,66.38,54.51,35.45,71.06,46.14,86.41,68.26,33.59,102.4,60.68,55.75,32.77,96.25,57.38,39.06,35.06,26.94,86.66,43.51,72.18,59.67,38.89,22.65,28.85,45.66,35.05,37.46,41.51,27.94,70.95,39.45,34.26,59.2,19.3,81.69,27.93,22.92,88.42,26.2,64.8,139.35,45.22,31.54,84.92,31.56,177.89,56.14,44.73,68.73,55.22,103.52,42.69,59.12,66.12,36.35,77.12,40.14,60.9,87.21,40.96,520.85,43.23,35.4,101.99,16.83,78.39,57.36,118.8,40.27,64.86,11.65,31.27,70.09,69.89,56.38,80.18,53.32,61.37,47.79,59.34,14.69,35.26,25.67,48.6,323.56,44.32,63.1,36.93,46.08,64.62,34.75,112.75,90.93,61.14,41.22,38.64,27.46,47.22,11.86,29.45,73.13,38.72,64.4,57.73,157.66,35.74,66.49,26.48,107.46,140.16,46.23,164.5,35.23,55.65,61.52,92.3,12.15,45.75,15.43,149.83,72.36,67.18,42.28,29.56,29.58,40.24,79.21,128.55,24.25,62.67,35.33,28.19,31.32,54.66,27.43,64.31,119.26,30.14,16.9,70.03,27.49,35.31,14.25,156.85,61.98,11.2,108.29,152.24,170.35,39.56,200.16,84.8,56.41,54.33,43.15,32.58,177.01,36.44,50.74,93.23,46.54,24.45,87.53,115.64,48.33,60.54,19.11,15.71,80.38,44.49,12.44,782.42,61.78,47.84,45.7,22.45,17.79,57,90.06,76.38,21.03,71.4,43,38.64,41.12,54.75,31.42,16.5,44.05,24.17,47.47,97.13,41.48,7.99,23.94,53.49,42.71,63.94,90.4,64,7.91,13.85,80.5,35.36,14.46,104.24,38.12,54.55,9.48,33.32,66.74,89.61,37.07,0,170.63,33.69,16.73,38.88,87.05,47.08,55.82,57.21,28.39,218.03,57.12,37.56,47.98,133.42,56.59,73.07,39.69,60.34,30.73,81.79,35.36,50.26,63.08,23.85,52.95,74.93,74.13,82.69,12.59,22.022062,25.528847,19.436647
2/12/2013,44.62,24.4,90.37,98.96,91.99,95.1,4.65,7.22,47.29,34.61,75.99,23.75,60.1,23.51,88.46,39.62,42.97,21.05,33.74,53.8,75.8,152.32,21.61,13.66,77.49,71.64,74.58,34.52,22.7,44.84,152.68,46.06,47.08,46.09,67,41.05,34.47,37.13,31.18,130.83,40.5,36.46,68.16,13.86,156.8,46.96,54.49,75.98,104.83,30.52,74.41,40.14,28.34,60.66,78.36,59.12,57.2,56.93,44.5,35.63,41.76,73.59,47.48,59,46.76,20.01,120.72,39.43,37.56,44.89,122.67,27.88,95.87,13.08,29.42,7.93,42.87,98.43,39.6,67.13,63.57,47.24,33.15,9.14,56.7,40.83,74.46,42.01,90.92,258.7,162.97,39.48,111.55,40.71,54.32,54.98,90.14,107.03,45.61,26.99,66.68,73.44,145.75,110.81,41.45,83.45,95.18,30.81,42.25,223.09,33.3,61.43,58.25,52.03,78.53,24.24,61.98,12.43,40.87,36.45,88.55,28.69,33.26,35.42,152.65,29.16,23.63,84.18,64.2,71.03,37.68,64.43,134.1,17.54,382.09,55.78,30.6,51.17,44.16,63.02,64.01,87.55,35.66,49.14,220.34,52.93,61.44,28.55,27.68,57.49,56.88,70.4,106.12,69.5,20.97,59.53,71.36,27.37,78.79,19.87,571.386,66.01,106.38,102.96,29.89,40.49,23,119.57,44.62,75.83,56.02,97.22,67.32,55.33,35.49,71.46,45.65,86.82,68.92,33.25,101.56,60.97,56.14,32.75,96.34,56.3,39.79,35,27.03,85.78,43.65,72.49,60.21,38.91,22.64,28.8,45.53,34.68,37.58,41.82,28,71.03,38.63,34.3,58.13,20.32,80.89,27.9,24.05,88.83,25.85,65.55,136.45,45.54,31.51,84.54,31.56,177.95,56.26,44.9,68.68,55.09,102.15,42.72,59.25,66.34,36.02,76.6,39.93,60.83,86.93,40.23,519.64,43.49,35.14,101.76,17.1,78.6,57.83,118.43,40.67,65.42,11.55,31.19,70.42,70.19,56.71,79.2,54.3,60.68,47.93,59.13,14.5,35.51,25.84,48.18,322.51,44.44,63.6,36.52,46.27,63.93,34.66,112.22,91.34,61.49,41.39,38.89,27.95,47.11,12.245,29.43,73.75,39.02,64.51,58.08,159.09,35.84,67.49,26.69,110.65,142.25,46.66,164.67,35.6,56.12,61.87,90.21,12.24,45.04,15.41,150.71,72.17,65.885,43.21,29.14,29.9,40.11,79.9,128.5,24.2,62.73,35.67,28.61,31.49,54.7,27.71,64.22,119.19,30.31,17.18,68.31,27.91,36.74,14.34,157.13,62.2,11.31,108.05,154.11,168.18,38.99,200.04,85.57,56.78,54.63,44.35,32.11,176.79,36.62,51,93.97,46.75,24.74,87.26,116.5,48.06,60.51,18.95,15.43,80.77,45.28,12.57,780.7,62.67,48.14,45.89,22.58,20.01,62,89.41,75.59,21.19,71.4,42.75,38.97,41.15,54.95,31.95,16.56,44.22,24.17,47.86,97.7,41.95,7.96,24.19,53.28,42.84,64.09,89.9,64.77,7.92,13.89,80.59,35.31,14.27,105.45,38.26,54.36,9.53,33.44,66.98,89.98,37.34,10384.5996,172.36,33.56,16.86,39.11,87.42,46.81,56,57,28.54,214.53,57.01,36.5,48,134.67,56.56,73.37,39.89,60.36,31.01,82.79,35.41,49.5,63.8,24.57,53.05,75.41,73.93,82.31,12.78,22.259447,25.742004,19.524992
2/13/2013,44.75,24.45,89.25,99.07,93.22,94,4.5,7.13,47.4,34.96,74.78,24.49,60.08,23.86,88.67,39.4,42.98,20.78,32.45,53.44,75.66,152.32,21.67,13.77,77.48,71.88,75.1,34.57,22.62,44.72,152.32,46.6,47.26,46.79,67.75,41.39,34.51,37.5,31.46,130.23,40.68,36.64,68.11,14.08,154.77,46.64,54.56,76.56,104.91,30.47,74.85,40.41,28.32,60.44,78.07,59.55,57.26,57.07,44.55,35.84,41.69,72.39,46.89,58.91,47.69,20.57,120.49,39.61,37.21,45.2,122.4,28.03,97.36,13.04,28.94,7.85,43.08,99.53,39.47,66.92,64.05,47.47,33.28,9.14,57.28,41.4,74.67,41.75,90.33,269.47,162.05,39.22,111.72,40.84,54.01,55.22,90.99,107.18,45.88,27,66.11,74.17,146.47,110.98,41.15,84.13,96.33,31.16,41.53,225.62,33.48,61.68,58.61,52.98,78.63,24.12,61.89,12.37,40.83,36.89,88.47,29.38,33.72,35.27,152.85,28.9,23.63,84.33,64.11,71.31,38.56,64.11,133.6,17.17,379.73,55.07,30.52,51.06,44.17,63.55,63.88,87.62,35.53,48.68,217.89,53.22,61.44,28.67,27.75,57.65,56.97,70.11,106.16,68.82,21.14,61.48,71.5,27.9075,79.04,19.8,573.7,63,107.57,103.1,30.16,40.92,23.01,119.78,44.71,76.33,56.7,96.38,67.45,54.5,35.36,71.61,46.24,86.66,68.96,33.7,102,61.02,57.06,33.01,96.13,57.28,39.77,35.1,27.18,86.73,44.08,72.55,61.04,38.66,22.87,28.86,45.58,35.01,37.8,42,27.92,71.52,38.87,34.46,58.81,20.23,81.67,28.17,23.83,88.78,26.03,65.47,139.11,45.44,31.5,84.94,31.78,186.269,55.83,44.93,68.15,54.56,102.28,42.61,59.29,65.76,36.3,76.38,39.84,60.81,86.94,39.72,519.21,43.38,35.17,101.63,17.01,78.97,57.68,118.74,40.99,65.68,11.61,31.22,70.18,70.54,56.61,78.09,55.49,60.71,48.04,58.81,14.78,35.13,25.86,48.63,317.01,44.52,63.45,36.12,46.26,63.66,34.78,112.27,91.45,62.2,41.18,38.81,28.26,46.99,12.17,29.79,74.21,37.46,64.4,58.1,160.02,35.64,67.89,27,105.21,142.55,46.9,165.45,35.42,55.86,61.88,92.01,12.4,44.39,15.4,151.81,71.5,65.45,42.67,29.4,30.24,39.96,79.99,126.76,24.3,62.69,35.64,28.99,31.88,55.46,27.63,64.31,119.04,30.48,17.15,68.04,27.28,37.31,14.17,156.08,62.1,11.34,107.9,154.52,170.33,39.39,200.09,85.59,57.05,54.69,44,31.84,175.63,36.77,52.005,90.68,47.1,24.84,87.06,115.53,50.46,62.3,18.98,15.12,81.35,44.85,12.78,782.86,63.3,48.69,46.48,23.39,20.36,61.35,89.7,74,21.25,71.39,42.67,40.13,41.09,54.96,31.59,16.11,44.62,24.49,47.89,97.97,41.48,8,24.03,53.63,42.93,64.09,89.89,64.17,7.95,13.71,81.04,35.2,14.66,104.67,38.18,53.97,9.45,33.53,67.96,89.5,37.15,10384.5996,172.3,33.72,16.92,39.4,87.06,45.86,56.13,57.33,28.46,213.02,57.23,37.2,47.64,135.29,56.62,73.56,40.42,60.45,31.5,82.76,35.82,48.65,64.16,24.34,53.19,75.17,74.78,82.5,12.86,22.328205,25.537371,19.667953
2/14/2013,44.58,24.49,88.4,99.51,93.47,93.56,4.24,7.17,46.73,35.34,74.93,24,60.32,24.22,88.52,39.72,44.31,20.43,34.92,53.5,75.81,152.37,21.68,13.89,77.81,71.97,74.88,34.53,22.67,44.05,152.81,46.98,47.15,46.68,67.25,42.01,34.56,36.69,31.62,130.05,40.49,37.14,67.78,14.17,155.98,46.77,54.33,76.78,104.21,30.53,75.77,40.42,28.49,60.38,77.74,59.95,58.44,57.2,44.29,35.91,32.27,72.01,46.89,58.74,47.69,20.4,120.3,39.69,36.84,45.21,123.2,28.04,97.61,13.11,28.79,7.91,42.91,100.35,39.21,67.41,64.57,48.23,33.14,9.15,57.3,41.6,74.82,41.8,92.16,269.24,160.57,39.52,113.16,43.32,54.25,55.25,90.01,107.35,45.88,27.06,66.22,73.8,147.34,111,41.19,84,96.31,31.4,41.43,226.29,33.78,62.15,57.92,52.83,81.56,23.89,61.45,12.73,40.64,36.83,88.39,28.9,32.55,36.57,152.49,28.97,23.83,80.33,64.33,71.73,38.97,64.83,133.33,17.15,373.61,55.59,30.36,51.89,43.91,63.7,64.02,87.9,36.25,49.22,217.86,53.09,60.76,27.75,26.57,57.56,56.53,70.1,106.56,68,20.99,60.66,70.96,28.5,79.17,20.03,571.26,63.29,107.05,103.75,30.45,41.08,23.03,119.86,44.69,75.35,57.35,96.07,67.34,54.07,35.92,71.86,47.23,86.44,70.29,33.31,101.68,61.16,59.3,34.12,96.44,57.91,39.57,35.32,26.91,86.49,44.08,72.2,61.24,38.67,22.93,29.16,45.67,34.95,38.44,41.91,27.89,70.84,39.21,34.7,59.01,20.27,83.16,28.1,23.78,88.69,25.75,65.17,139,46,31.12,84.72,32.03,187.4,55.55,44.77,68.17,54.62,100.89,42.43,59.58,65.8,36.07,76.18,39.45,61.12,86.91,39.93,522.16,43.67,35.64,102.02,17.03,78.84,58.05,119.21,41.15,67.86,11.47,31.3,70.09,70.79,56.1,77.83,55.9,60.5,48.17,58.08,14.24,35.21,25.75,48.81,317.72,44.33,63.7,36.58,46.54,61.8,34.11,112.15,90.85,61.98,41.16,38.61,28.47,47.17,12.13,28.11,73.84,37.35,64.36,58.41,159.97,35.46,69.04,26.7,104.4,144.43,43.55,163.67,35.29,54.87,61.62,87.63,12.49,45.03,15.38,155.52,72.28,65.53,42.94,29.48,30.6,39.54,80.34,130.05,24.97,63.09,35.53,29.11,43.75,54.96,27.78,63.76,118.73,30.44,17.15,66.66,27.84,37.87,14.14,154.2,62.34,11.21,108.33,155.93,169.24,40.11,199.65,85.04,56.83,54.47,44.32,31.36,174.86,37.32,52.49,90.57,47.74,24.86,87.08,115.71,51.52,61.17,18.97,15.71,80.89,44.55,12.95,787.82,63.54,48.9,45.66,23.41,20.11,61.67,89.19,73.48,21.23,70.82,42.4,40.34,40.76,54.88,30.71,16.13,43.97,24.4,47.86,99.21,41.86,8.03,24.28,53.45,42.9,64.39,90.19,63.87,8.08,13.49,81.39,35.2,13.99,104.6,38.72,53.76,9.48,33.72,68.35,89.69,37.08,10384.5996,174.46,33.79,16.92,40.09,86.35,45.52,55.98,57.06,28.24,226,57.05,36.98,46.18,136.17,56.36,73.13,40.88,60.74,31.87,82.15,35.86,48.83,65.32,24.1,53.03,75.14,74.08,82.69,12.91,22.061777,25.50326,19.606316
2/15/2013,42.25,24.2,88.68,98.77,92.61,93.9,4.095,7.1,46.4,34.66,75.03,24.19,61.35,24.01,88.36,39.36,44.59,20.41,34.09,53.59,76.16,155.41,21.86,13.74,78.46,71.5,74.43,34.13,22.53,44.06,157.88,46.34,47.8,46.8,64.95,41.84,34.71,36.44,31.69,130.26,40.57,36.69,69.47,14.1,157.99,46.6,54.34,76.54,103.42,30.41,74.75,39.96,28.9,59.91,77.67,59.46,58.52,57.24,44.46,36.08,33.02,72.62,46.03,57.69,51.08,20.01,120.1,39.73,37.42,45.54,122.96,28.01,97.77,13.02,28.12,7.85,42.8,101.09,38.84,66.8,64.51,48.12,33.13,9.06,57,41.6,75.21,42.17,92.4,265.09,159.9,39.15,113.58,42.7,55.17,55.4,89.99,107.21,45.85,27.29,66.4,73.88,146.51,111.33,41.42,82.08,96.04,32.57,41.29,229.48,33.73,62.59,57.02,52.91,80.03,23.94,61.08,12.731,40.2,36.28,88.49,29.19,32.4,37.58,151.69,29.12,23.87,76.85,65.24,70.36,39.14,64.17,129.19,16.97,373.7,54.03,30.27,51.12,44.11,63.25,63.85,87.93,35.745,48.88,216.67,53.47,62.07,27.76,26.72,57.51,57.32,70.42,106.42,68.06,20.99,59.25,70.05,28.32,79.43,20.16,569.21,62.7,107.8,103.77,30.33,41.03,23.27,120.04,44.84,75.62,57.71,95.61,67.52,53.93,36.26,72.56,47.29,86.5,69.33,33.04,101.31,61.68,56.26,34.08,97.12,57.42,39.14,34.83,26.78,85.24,43.91,72.5,60.87,39,22.79,29.22,46.14,34.445,38.12,41.91,28.11,70.3,38.35,35.08,59.47,20.31,82.56,27.99,23.66,88.23,25.37,64.58,139.39,46.7,31.09,83.61,32.07,189.512,54.34,45.13,68.17,54.95,101.72,42.72,59.77,65.63,36.12,76.85,39.78,61.43,84.71,41.12,523.13,44.66,35.14,102.17,16.79,79,57.42,117.46,40.849,67.83,11.6,31.31,70.11,71.44,55.76,77.99,54.87,59.37,48.09,57.78,14.45,35.16,25.77,48.59,314.19,44.4,64.78,36.58,46.175,61.45,34.38,112.02,90.76,62.18,41.23,38.635,28.28,47.12,12.03,27.15,73.13,36.92,64.42,58.29,159.95,35.11,68.77,26.74,104.86,144.56,44.415,166.7,35.36,55.03,61.53,86.01,12.57,44.37,15.34,156.46,73.68,65.43,44.64,29.39,30.7,39.12,80.39,130.56,24.5,61.71,35.04,28.74,43.39,54.31,27.36,63.01,119.21,30.65,17.17,67.9,27.52,38.49,14.4,151.26,61.69,11.17,110.02,154.99,164.93,40.1,200.98,84.89,56.7,54.92,43.84,32.88,176.07,37.075,52.76,89.75,47.61,25.1,87.87,114.96,51.8,60.4,19.4,16.87,80.93,43.27,12.79,792.89,63.11,49.35,45.61,23.29,20,63.27,89.84,75.18,21.115,69.3,42.26,41.24,40.94,55.61,30.62,16.045,43.53,24.46,47.92,99.77,41.15,7.97,24.18,52.66,42.5,64.69,91.2,63.87,7.91,13.45,81.75,35.52,14.5,104.83,39.4,53.98,9.48,33.97,67.42,90.78,37.22,0,175.03,33.585,16.9,39.11,86.36,45.15,56.21,57.28,27.89,224.53,57.32,36.49,46.68,136.83,56.58,74.16,40.53,61.22,32.05,82.7,36.55,49.34,64.35,24.43,53.03,76.11,73.46,83.48,12.95,22.139128,25.50326,19.4625
2/19/2013,43.01,24.76,89.3,100.46,93.36,93.85,4.17,7.14,47.27,35.71,74.65,24.49,61.99,24.13,89.32,40.05,45.43,20.51,36.13,54.18,76.96,154.94,22.25,13.89,79.17,73.2,75,34.23,22.6,44.64,163.38,46.48,48.25,48.57,66.95,42.21,34.96,37,32.28,130.42,41.08,36.62,69.35,14.09,157.61,47.22,54.98,77.38,103.87,30.47,74.66,39.69,29.17,59.93,77.63,60.16,58.95,57.54,44.7,36.54,34.14,73.46,45.33,58.17,49.68,20.36,121.14,40.07,37.67,45.09,120.39,28.045,99.08,12.99,27.69,7.96,43.49,102.04,39.66,67.62,66.28,47.72,33.24,9.11,57.91,42.28,75.69,41.91,91.75,269.75,160.5,39.53,114.73,42.81,55.8,56.47,91.31,107.35,46.74,27.71,67.03,73.85,148.62,112.61,42.22,84.13,97.46,33.08,41.69,229.13,33.45,63.5,58.6,52.62,79.99,24.53,60.43,12.555,39.91,36.41,88.57,29.03,32.69,38.19,153.65,29.58,24.32,77.3,66.48,72.49,39.24,64.76,131.4,17.585,375.21,53.12,30.37,52.66,44.48,64.19,63.69,88.41,36.19,49.45,218.53,53.91,62.21,27.68,26.96,57.58,57.54,70.89,107.33,68.96,21.46,60.57,70.69,28.93,79.98,20.55,582.27,62.77,108.78,103.44,30.75,41.3,23.48,121.66,45.06,76.46,57.29,95.6,67.55,53.94,36.5,72.86,47.73,86.95,69.48,33.28,102.16,61.8,56.26,34.38,96.7,57.76,39.41,35.4,27.26,84.81,43.92,72.9,61.49,38.98,23.08,29.11,46.22,34.18,39.14,42.43,28.3,70.63,38.6,34.82,59.32,19.95,84.21,28.24,23.29,88.7,25.5,64.42,135.71,46.46,31.41,84.131,32.29,196.45,54.45,45.56,68.32,54.47,103.62,43.22,60.14,66.2,36.28,78.321,40.21,62.03,85.8,40.4,522.86,44.56,35.545,101.9,16.89,80.72,57.59,115.9,41.2,67.94,11.7,31.17,70.93,68.75,56.39,73.01,55.64,60.72,48.46,58.37,14.3,35.14,26.09,48.57,313.05,44.5,65.65,36.94,47.01,61.78,34.77,113.9,90.85,61.46,40.83,38.995,28.76,45.8,12.19,27.3,73.81,36.51,64.75,58.56,159.72,35.45,69.03,26.97,104.95,146.08,43.52,164.1,35.67,54.81,62.03,83.39,12.58,43.96,15.26,155.75,75.5,65.67,44.88,29.58,30.65,40.43,80.6,132.45,24.54,61.87,34.26,28.89,43.28,55.52,27.66,63.02,118.87,30.83,17.28,67.04,28.63,38.58,14.25,152.72,62.28,11.37,111.91,158.65,160.42,40.7,200.32,85.75,56.68,55.59,44.5,32.64,177.04,37.15,53.18,90.37,47.65,25,88.23,115.92,53.05,61.18,21.15,17.33,81.73,42.9,12.9,806.85,63.6,50.3,46.52,23.75,19.98,64.84,90.28,74.62,21.085,68.76,42.6,41.45,41.41,55.73,30.59,15.96,45.1,24.8,48.68,101.02,41.7,8,24.09,52.4,42.74,65.01,92.21,63.51,8.12,13.58,82.54,36.73,14.26,105.78,40,54.29,9.58,33.93,68.21,91.02,37.22,10153.7998,174.83,33.94,17.1,39.68,86.7,45.25,56.73,58.15,28.21,221.082,56.66,36.99,47.04,137.53,57,75.4,40.91,61.46,32.34,83.49,36.48,49.53,65.45,24.41,53.64,76.8,73.43,84.76,13.07,22.573143,25.520315,19.667953
2/20/2013,42.24,24.31,88.42,100.4,92.33,93.91,4.02,7.01,47.36,34.57,74.78,24.3,61.51,23.56,88.97,39.48,45.47,20.7,35.13,54.29,76.65,152.77,21.71,13.59,77.63,72.25,72.64,33.35,22.555,44.01,160.43,46.57,47.98,47.37,67.33,41.29,34.67,35.89,31.6,129.69,40.56,36.53,69.58,13.86,155.42,46.61,54.8,77.08,103.41,30.48,73.05,39.08,28.7,58.7,77,58.8,58.02,56.73,44.61,36.12,33.93,72.17,44.68,57.5,50.67,20.24,118.39,39.64,37.73,44.53,116.56,27.87,97.54,12.6,27.58,7.71,43,98.62,39.18,66.48,64.34,45.95,33.46,8.68,59.02,41.88,74.81,40.07,91.7,266.41,159.52,38.93,114.13,41.62,54.05,55.15,92.09,106.52,46.41,27.57,66.61,72.44,145.42,107.57,42.66,80.37,95.02,32.5,41.26,226.65,33.65,62.06,57.67,51.49,78.53,24.02,59.27,12.38,37.18,35.41,87.42,28.44,32.25,38.61,152.41,29.7,23.42,75.48,66.11,70.25,35.54,62.64,127.39,17.48,379.96,52.27,30,51.85,44.55,63.12,63.08,87.12,35.45,48.61,207.07,53.26,61.42,27.1,27.025,57.44,56.84,69.49,105.69,68.85,21.105,56.57,69.9,28.462,78.94,20.16,556.83,62.58,103.5,101.56,29.62,40.96,21.97,121.6,44.51,75.97,57.02,93.22,66.44,53.72,36.19,72.22,44.93,85.97,67.84,33.09,101.39,60.97,54.32,32.95,95.87,56.79,38.64,34.71,27.04,83.1,43.34,72.94,60.74,38.73,22.82,28.713,45.62,32.5,38.29,41.7,28.2,69.67,37.57,34.52,58.23,18.6,80.23,27.86,21.93,87.61,25.33,63.11,131.51,46.07,31.29,84.65,32.53,187.12,53.31,45.57,67.54,54.02,102.2,43.12,59.77,66.04,36.09,77.05,40.13,61.26,84.51,40.29,512.91,44.21,34.67,101.08,16.7,79.5,56.48,116.18,40.77,65.61,11.43,31.19,70.35,69,54.9,72.6,53.09,59.28,47.32,58.47,13.82,35.1,26.05,46.54,309.49,44.92,64.4,36.69,45.79,61.55,34.89,111.34,89.55,58.51,39.72,38.77,27.96,44.76,11.8,24.75,72.1,35.43,64.86,57.75,157.76,34.82,67.95,26.66,102.76,143.08,42.76,159.33,35.47,52.32,60.88,84.46,12.48,43.8,15.28,154.72,75.42,65.27,43.82,29.22,29.92,39.51,80.11,127.84,23.62,62.65,32.22,28.14,41.8,53.69,27.16,62.22,114.83,29.78,17.03,67.13,28.07,37.4,14,152.46,61.91,11.37,112.11,155.18,158.42,39.25,199.31,84.88,55.53,55.89,43.22,32.29,173.51,36.45,52.19,88.23,47.46,24.45,87.73,114.99,51.45,60.26,20.54,17.25,80.85,40.56,12.63,792.46,63.71,49.39,45.441,23.41,18.73,61.5,89.58,73.95,20.73,69.21,41.81,40.95,41.15,54.6,30.29,15.83,44.6,24.25,48.75,100.22,41.6,7.86,23.6,51.57,41.96,65.29,91.74,63.17,7.875,13.28,82.44,35.46,13.33,104.65,40.01,54.05,9.35,33.71,66.01,90.16,37.05,9923.0801,171.08,33.06,16.69,37.84,86.39,44.85,55.92,56.05,27.67,215.62,55.21,37.26,46.58,134.72,57.19,75,41.12,61.21,32.3,82.16,35.54,49.82,63.25,24,52.88,75.67,70.22,83.81,12.99,22.457121,25.494734,19.654253
2/21/2013,41.63,23.7,87.35,99.43,91.79,94.14,4.02,6.86,46.39,34.38,76.01,24.48,61.04,23.4,88.59,38.5,45.33,20.67,34.41,54.02,76.87,152.05,21.33,13.25,76.08,71.55,72.09,32.99,22.31,43.51,158.97,46.51,48.15,47.47,68.81,41.01,34.43,35.29,30.91,127.7,39.9,36.42,69.43,13.53,157.44,46.48,54.59,77.04,102.8,30.42,72.05,38.6,28.25,57.74,76.46,58.06,57.62,56.09,44.3,36.51,34.27,71.4,44.27,57.52,49.76,20.19,117.8,39.31,37.71,44.06,115.53,27.49,97.77,12.39,27.46,7.59,41.31,97.89,38.78,66.05,63.53,44.7,33.18,8.55,59.42,41.54,73.98,41.31,91.9,265.94,158.02,38.33,113.58,40.77,53.98,54.52,93.13,105.46,46.47,27.41,66.49,71.91,143.13,107.11,42.5,80.21,93.26,32.11,40.26,223.75,33.72,61.55,58.11,50.86,77.43,23.95,59.17,12.29,37.69,35.79,86.83,28,31.87,38.78,151.26,29.58,22.83,75.11,65.85,70.15,35.02,62.29,124.04,17.64,377.56,52.21,30.04,51.86,44.43,61.62,62.17,86.16,34.83,48.25,203.93,52.52,61.3,26.51,26.82,57.11,56.13,69.28,104.88,68.83,20.76,54.88,69.48,27.283,77.93,19.71,561.25,62.71,102.21,100.89,29.22,40.48,22.27,122,44.56,75.83,56.44,91.53,64.38,51.71,35.51,71.62,45.53,86.15,66.78,33.12,100.77,60.99,53.16,32.66,95.65,57.03,37.67,33.6,26.97,83.75,43.41,72.53,59.45,37.97,22.55,28.81,45.3,31.72,37.65,41.49,28.05,68.71,37.28,34.26,57.46,18.75,80.59,27.32,22.17,85.67,24.73,63.76,130.08,45.48,31.74,85.13,32.66,187.15,53.35,45.36,66.42,54.54,100.73,41.41,59.67,65.37,36.28,75.17,40.12,60.88,83.43,41.46,519.59,43.79,33.67,100.69,17.1,79.06,55.59,115.6,40.42,64.27,11.45,30.97,69.8,68.64,53.86,72.65,50.94,59.17,46.69,57.52,13.56,35.46,26.12,45.74,308.13,45.12,64.28,36.69,45.12,61.52,35.2,110.06,88.71,57.73,39.16,38.34,27.68,44.73,11.42,24.43,71.41,35.36,64.83,56.99,155.85,34.08,67.25,25.94,100.38,140.84,42.94,155.91,35.43,51.99,60.51,87.28,12.25,45.51,15.24,153.03,75.36,64.82,43.41,28.58,29.66,39.33,80.38,125.52,21.16,63.4,32.34,28.44,42.96,53.86,26.3,61.62,112.53,29.11,16.43,68,27.61,37.07,13.9,152.01,61.54,11.06,113.09,150.88,159.31,38.99,198.33,84,54.62,55.7,42.35,32.05,170.62,36.14,50.89,87.06,47,24.54,87.56,114.99,50.96,57.68,20.66,17.41,80.3,40.55,12.51,795.53,63.03,48.62,44.82,23.26,18.64,59,89.13,73.78,20.25,70.26,40.75,40.08,40.89,54.17,30.2,15.6,44.49,23.97,48.54,100.17,41.62,7.84,23.39,51.05,40.91,65.35,91.86,62.39,7.68,12.94,82.37,34.72,13.37,103.09,39.67,53.94,9.34,33.01,64.4,89.41,35.69,9846.1504,168.55,32.48,16.37,37.19,85.68,44.74,55.7,55.11,28.76,214.01,55.24,36.55,46.41,134.25,57.4,73.85,41.12,60.27,31.76,81.09,34.54,49.58,62.23,24.02,52.25,74.38,68.72,82.61,12.9,22.341099,25.315674,19.565231
2/22/2013,41.8,24.09,87.78,101.65,92.65,95.25,4.09,6.98,46.98,34.71,76.66,24.72,61.68,23.8,89.2,38.92,45.67,20.9,33.81,54.27,76.25,154.02,21.45,13.57,77.44,73.11,72.95,33.24,22.93,43.48,158.54,46.19,48.61,48.27,68.84,41.64,34.53,35.78,31.61,128.83,40.54,36.61,70.13,13.45,159.43,46.95,55.4,76.99,103.66,30.79,71.99,38.73,28.57,58.16,76.88,59.02,58.31,57.19,44.47,37.13,34.64,72.91,44.54,57.6,50.69,20.5,118.89,39.6,38.52,44.34,117.34,27.76,98.78,12.48,27.9,7.77,41.78,98.09,39.42,67.27,64.05,45.18,33.58,8.82,60.79,42.45,74.7,43,92.99,265.42,159.72,38.89,113.31,41.11,54.15,53.99,93.42,106.27,46.74,27.38,67.32,72.46,146.37,109.55,42.97,81.75,94.54,32.1,39.54,224.86,33.92,63.19,58.2,51.56,77.79,24.03,58.71,12.52,37.88,35.76,87.91,28.04,32.26,38.46,151.48,29.83,23.58,75.4,66.87,71.71,35,64.11,125.34,17.81,385.2,52.28,30.58,51.35,44.74,61.48,62.7,87.56,35.35,48.91,201.52,53.23,62.78,27.11,26.77,57.21,55.75,70.8,105.82,69.46,20.9,54.98,70.12,27.13,78.81,19.86,574.05,61.92,106.74,101.25,29.73,41.01,22.87,124.31,45,76.79,57.2,91.54,65.58,51.24,35.95,73.12,46.07,86.69,68.1,33.35,102.25,61.46,53.28,32.51,96.09,57.99,37.67,34.3,27.2,83.44,43.68,72.75,59.75,37.91,22.86,28.98,45.8,31.84,37.96,42.24,28.23,70.47,38.45,34.55,58.71,18.9,81.53,27.63,22.31,86.09,24.82,64.49,132.32,45.56,32.16,86.82,32.75,179.86,54.17,46.18,67,54.47,101.06,41.98,60.01,65.97,36.59,76.38,40.37,61.9,83.61,41.89,523.83,44.23,34.09,101.16,19.2,79.21,56.04,116.05,40.52,65.54,11.6,31.34,69.89,69.57,54.78,70.61,52.71,60.56,46.86,57.97,13.75,35.82,26.4,45.9,315.51,45.4,64.38,36.9,45.52,62.05,35.32,111.59,90.06,57.47,39.49,38.55,27.79,44.72,11.44,24.92,71.91,34.99,65.62,57.27,161.3,34.44,67.93,26.44,101.14,143.24,43.85,157.85,35.68,51.96,60.5,87.44,12.58,46.03,15.2,155.98,75.57,64.94,43.37,29.14,29.78,39.08,81.01,127,21.85,63.6,32.45,28.7,43.96,59.81,26.59,63,112.79,29.72,16.89,69.97,28.13,36.27,14.02,152.41,62.57,11.23,113.97,154.09,160.38,39.31,201.09,85.34,55.02,56.38,42.79,31.96,171.12,36.87,51.47,87.13,47.98,24.66,88.12,115.96,51.87,59.32,21.02,17.02,81.23,40.82,12.61,799.71,63.31,49.1,45.91,23.39,18.92,59.11,88.98,74.52,20.42,70.4,40.81,39.91,41.43,54.25,30.49,15.8,46.48,24.25,48.98,101.21,41.81,8.12,23.48,51.21,42.03,66.2,94.5,62.9,8.02,13.27,83.13,35.54,13.57,104.73,40.13,54.44,9.51,33.12,66.03,90.49,36.04,9846.1504,170.56,34.18,16.73,37.23,86.37,46.23,56.13,56.08,28.79,214.21,54.47,37,46.86,136.02,58.48,74.8,41.13,61.01,31.85,81.64,34.38,50.07,61.49,24.3,52.61,74.45,71.69,82.94,12.94,22.512981,25.58,19.811762
2/25/2013,41.29,23.05,87.37,99,90.42,96.14,4.04,6.8,46.24,32.94,75.03,24.06,60.11,23.26,87.7,38.24,45.42,20.52,32.74,53.77,75.57,155.43,20.72,13.23,75.14,71.44,71.6,32.79,22.43,42.85,157.53,45.51,47.64,46.71,66.53,40.47,34.06,34.64,30.7,126.33,39.56,36.34,68.85,13,155.89,46.18,54.38,75.92,102.12,30.35,68.96,38.27,28,56.56,75.32,57.31,57.78,56.2,44.36,36.56,34.09,71.21,43.1,56.89,49.64,19.11,117.36,38.8,37.72,43.46,115.56,27.37,96.54,12.13,27.12,7.48,40.86,94.63,38.32,66.04,61.45,43.71,33.12,8.33,59.45,42.09,72.8,41.79,91.51,259.87,157.37,37.94,114.6,39.85,53.13,52.7,91.56,104.01,45.36,26.84,66.69,70.73,142.46,107.11,42.52,78.57,90.9,31.7,39.06,221.48,33.52,62.81,56.89,50.77,75.83,23.65,57.64,12.3,36.66,35.21,86.85,30.26,32.43,37.37,149.44,29.45,22.03,73.25,65.8,70.47,34.2,61.34,121.77,17.7,378.54,50.8,29.89,50.53,44.54,59.77,62.09,85.38,35.01,47.7,197.26,52.18,62.02,26.33,26.49,56,55.64,69.17,103.11,69.11,20.66,54,69.21,27.27,77.06,19.12,566.34,61.46,101.5,101.29,28.33,39.69,23.16,121.3,43.92,75.73,56.4,89.16,63.92,50.24,35.13,71.4,44.25,84.42,66.26,32.9,101.35,59.89,51.24,31.16,94.99,56.01,35.86,33.52,26.9,83.14,42.4,72.19,59.27,36.62,22.22,28.52,44.88,30.84,37.3,41.04,28.04,69.9,37.06,34.27,57.51,18.02,79.28,26.82,21.37,84.23,24.61,62.14,130.3,45.22,31.97,89.55,31.99,179.32,53.21,45.68,67.1,54.04,93.9,41.51,59.03,64.75,35.72,75.48,40.21,60.28,82.13,40.82,510.9,43.08,32.95,100.09,19.07,78.36,54.41,115.43,39.96,63.54,11.32,30.95,68.95,68.84,53.02,69.66,50.47,58.87,46.2,56.77,14.02,34.79,26.13,44.81,311.21,45.72,64.01,36.34,44.77,61.58,34.65,108.43,88.16,56.14,38.6,38.11,27.02,43.88,11.03,23.79,70.11,34.43,65.34,55.77,154.42,33.57,66.25,25.96,98.65,139.96,43.64,154.34,35.19,49.48,59.59,86.29,12.34,45.45,15.18,150.52,75.19,64.8,42.36,27.97,29.19,38.52,79.25,121.09,20.93,62.89,31.51,28.16,43.97,58.5,25.93,62.99,111.25,28.78,16.5,69.57,27.66,36.31,13.82,149.98,62.02,10.9,114.01,147.65,159.37,37.63,197.51,83.06,53.61,55.71,41.15,31.22,168.88,36.11,50.9,85.55,47.1,24.27,87.88,113.54,50.5,56.98,21.08,17,80.61,40.96,12.35,790.77,61.78,47.58,44.86,22.81,18.01,57.86,88.4,73.66,20.23,70.44,39.99,39.41,41.02,53.59,30.35,15.53,46.08,23.71,48.49,98.58,40.64,7.89,22.84,50.65,40.86,65.42,94.24,60.82,7.93,12.87,82.32,34.8,13.02,101.86,39.98,54.03,9.24,33.01,63.74,88.37,35.78,9846.1504,163.51,33.73,16.32,35.62,86.5,45.25,55,54.7,28.35,210.17,53.3,36.72,45.95,133.18,57.94,73.91,40.11,60.77,31.3,80.13,33.58,48.88,58.35,23.92,50.93,72.78,68,81.94,12.85,22.156322,25.469158,19.592617
2/26/2013,40.97,23.35,87.3,99.45,91.49,96.22,4.07,6.8,46.57,32.86,75.65,24.3,60.63,22.4,88.51,38.32,46.01,20.7,31.36,54.43,75.75,155.64,20.46,13.63,76.26,71.34,73.24,33.83,22.46,43.63,158.03,45.64,48.26,47.5,67,40.65,34.59,34.86,30.84,126.53,38.9,36.6,69.55,12.9,157.83,46.57,54.79,76.08,104.08,30.5,69.85,38.85,28.3,56.23,75.89,57.28,58.98,56.9,44.9,37,34.13,70.76,42.91,56.66,48.95,19.75,119.79,39.82,38.11,43.81,115.5,27.37,97.84,12.34,27.41,7.5,40.88,95.42,38.37,66.36,61.36,43.85,33.35,8.26,60.05,42.25,75.84,42.75,93.15,259.36,157.88,37.8,113.67,40.49,53.33,52.53,91.6,104.2,45.56,27.03,66.91,71.63,143.56,110.1,42.42,78.58,91.65,31.83,39.56,223.09,33.82,60.46,57.75,50.74,76.33,23.83,57.88,12.37,38.01,35.64,86.86,29.82,32.97,37.09,149.85,29.5,22.44,73.56,65.65,71.36,34.31,61.23,123.5,17.69,376.15,51.47,30.08,50.64,44.71,60.08,62.77,87.18,36.04,47.6,195.23,52.48,62.64,26.83,26.95,56,55.8,70.09,103.16,69.59,20.608,53.73,68.66,27.39,77.78,19.22,568.76,61.83,104.61,102.52,28.49,39.8,23.36,122.26,44.62,77.05,57.09,89.95,67.56,49.39,34.97,72.25,44.93,85.03,66.84,33.42,101.76,60.3,51.25,31.41,95.03,56.68,36.59,33.56,27.15,84.67,42.68,72.27,59.56,36.79,22.14,28.33,44.78,31.33,36.67,41.49,28.36,70.96,37.69,34.06,58.52,19.05,80.55,27.07,22.25,84.34,24.79,62.82,132.68,45.69,32.16,89.47,31.88,184.09,53.28,46.33,66.77,54.27,94.64,41.71,59.95,65.06,35.94,75.86,40.43,60.63,81.78,41.08,509.7,43.36,33.13,99.45,19.79,77.15,54.12,116.22,40.2,64.56,11.4,30.9,69.12,69.26,53.92,68.96,51.1,59.69,46.58,55.98,13.9,34.75,26.18,45.87,311.81,46.12,66.01,36.39,45,61.54,34.3,108.79,88.78,56.34,38.53,38.59,27,44.12,11.13,23.54,70.48,34.63,65.79,56.12,155.16,33.79,66.62,26.16,100.31,139.5,43.73,155.94,35.49,50.58,59.72,85.36,12.42,44.95,15.16,152.83,75.62,65.27,42.49,28.06,29.64,39.59,80.04,124.28,20.44,64.05,31.93,27.89,44.71,60.76,25.64,63.19,113.38,29.35,16.59,69.75,27.72,36.36,14,151.14,61.92,10.95,113.91,148,161.63,37.87,199.14,83,53.82,55.28,41.29,31.79,170.12,36.44,50.88,86.5,47.31,24.61,87.3,114.96,50.93,56.84,21.58,16.46,81.62,41.44,12.29,790.13,62.33,47.7,44.18,23.05,18.72,59.24,88.49,75.51,20.58,71.11,37.06,39.69,41.18,53.9,30.6,15.56,45,23.77,48.45,98.72,40.8,8.02,22.77,51.33,41.65,66.61,94.22,61.14,7.955,12.97,83.62,34.96,13.26,102.05,40.38,54.21,9.24,32.99,64.61,89.2,35.79,9769.2305,163.36,33.76,16.21,36.12,86.8,45.79,55.32,54.64,28.72,213.09,53.05,37.04,46.12,133.94,58.22,73.83,40.05,61.08,31.27,80.67,33.79,48.81,59.2,24.02,51.3,73.34,68.57,81.94,12.87,22.474306,25.349777,19.880241
2/27/2013,41.73,23.73,88.46,101.04,92.98,95.73,4.12,7.03,47.99,33.42,77.36,24.54,61.06,22.54,89.53,38.59,46.28,21.23,27.04,54.8,76.32,157.75,20.72,13.74,77.92,72.7,74.25,34.33,23.23,44.5,160.86,46.61,48.76,48.4,68.1,41.04,34.98,35.7,31.64,125.94,39.45,37.05,70.3,12.9,159.87,47.03,55.24,76.75,105.6,30.71,70.21,39.22,28.81,57.56,76.47,57.86,60.02,56.97,45.38,37.35,34.51,71.04,44.03,56.97,49.62,20.14,120.71,40.72,38.45,44.31,117.64,27.81,103.94,12.76,27.72,7.62,41.3,96.19,38.65,69.83,62.53,44.93,33.47,8.54,60.83,42.89,77.31,44.05,95.12,263.25,159.2,38.4,114.14,41.27,54.41,53.9,91.43,103.9,46.05,27.41,68.55,72.8,146.04,111.04,42.97,80.04,93.56,32,40.18,227.62,34.09,58.38,58.04,52.62,77.9,24,58.98,12.6,38.94,36.68,88.17,30.8,33.77,36.73,149.74,29.52,22.9,74.38,65.58,74.21,34.68,62.99,126.92,18.12,376.79,51.59,30.39,51.16,45.07,61.45,63.66,87.7,35.87,49.28,198.87,53.29,63.76,27.4,27.57,55.99,56.17,70.68,105.74,70.13,20.89,54.14,69.35,26.87,79.43,19.85,573.52,62.46,106.15,103.26,29.29,40,23.75,124.39,44.99,77.7,57.46,92.25,68.06,50.55,35.34,73.62,45.99,85.77,68.51,34.23,102.25,61.24,52.64,32.17,96,58.2,37.71,33.86,27.42,85.88,43.06,71.94,61.69,36.2,22.8,28.57,45.32,31.97,37.39,41.99,28.55,73.31,37.77,34.26,59.65,19.3,82.74,27.4,22.65,85.56,25.24,64.18,134.66,46.26,32.67,91.03,32.14,184.32,54.57,46.66,67.31,54.34,93.04,42.12,60.49,65.97,36.73,77.18,40.76,62.09,82.23,45.39,515.19,43.84,33.69,100.73,19.77,77.3,55.75,118.27,40.82,65.4,11.82,31.3,70.35,70.49,54.73,69.21,52.54,61.61,47.44,57.19,14.27,35.13,26.38,47.01,316.21,46.35,66.66,37.1,45.38,62.02,34.07,110.28,90.38,58.14,39.3,39.6,27.47,44.54,11.3,23.24,71.72,35.55,66.26,57.26,158.93,34.35,68.11,26.45,101.99,141.82,45.27,161.23,35.85,51.1,60.31,86.54,12.7,46.56,15.15,155.09,75.48,65.64,43.8,28.8,30.42,40.58,80.78,126.1,21.19,63.12,32.27,28.04,44.65,62.57,26.44,64.85,115.77,29.61,16.7,70.38,28.43,36.58,14.18,151.84,62.5,11.64,114.46,151.65,164.8,38.95,202.33,82.68,54.15,55.81,42.16,32.51,173.31,36.73,52.29,87.82,48.06,24.88,88.33,116.65,51.98,58.2,21.84,16.6,82.6,40.62,12.59,799.78,63.93,48.57,46.97,23.37,19.2,59.46,89,77.4,20.93,71.66,38.22,40.15,41.27,54.48,30.79,15.72,44.79,24.39,48.88,101.21,41.17,8.18,23.36,52.23,42.5,67.32,95.19,61.68,8.18,13.17,84.37,35.5,13.41,102.65,40.62,55.06,9.38,33.17,65.68,90.57,36.18,9769.2305,166.94,34.29,16.41,36.34,86.43,46.83,56.1,55.86,29.1,212.67,53.87,37.7,47.24,136.71,58.57,74.41,40.52,61.59,31.92,81.31,34.43,49.93,60.22,24.21,52.36,74.84,70.79,82.83,13.01,22.366879,25.326138,19.873396
2/28/2013,41.48,23.61,89.22,103.27,92.72,95.9,4.14,7.03,47.89,33.5,76.9,24.36,60.88,22.67,89.55,38.41,46.25,21.43,25.84,54.66,76.11,158.69,20.68,13.705,78.7,73.05,73.8,34.17,23.44,45.52,161.26,46.1,48.88,48.06,67.31,41.99,34.5,35.44,31.61,124.83,39.48,37.32,70.78,12.985,158.64,47.2,55.94,76.18,106.13,30.82,69.68,39.64,28.81,58,76.27,58.5,59.67,56.59,45.65,37.41,34.67,70.9,43.77,56.75,50.46,20.16,121.85,40.85,38.72,44.41,116.9,27.8,102.97,12.61,27.59,7.65,41.42,97.13,38.94,69.658,61.9,45.05,33.79,8.54,61.09,42.72,76.55,44.01,95.3,264.27,158.86,38.53,113.17,41.51,55.12,54.22,91.75,103.88,46.02,27.37,67.97,72.98,146.23,112.95,42.73,79.58,94.48,31.86,40.52,226.46,34.11,58.06,57.95,53.27,77.85,24,58.46,12.66,38.59,37.09,88.06,31,33.69,36.92,148.99,29.62,22.55,74.27,65.62,76.8,34.36,62.96,125.71,17.53,380.15,51.03,30.36,51.12,45.01,61.5,63.88,87.46,35.43,48.92,200.83,53.19,64.468,27.15,27.64,55.04,56.17,70.86,105.43,69.25,20.855,54.26,70.63,27.25,80.27,20.07,573.52,62.18,106.02,103.99,29.54,40.13,23.76,124.61,45.01,77.76,57.53,92.37,68.5,50.81,35.78,73.35,45.59,85.39,68.13,34.27,101.79,61.6,52.3,32.15,95.92,57.89,38.15,34.38,27.7,85.16,43.11,71.87,61.97,36.72,22.94,29.61,45.81,32.16,37.27,41.83,28.7,73.34,38.01,33.79,60.26,19.18,82.88,27.14,22.3,86.34,25.06,63.9,134.66,46.21,32.59,91.55,32.16,188.08,54.85,46.79,67.6,54.46,94.43,42.64,60.5,65.68,37.14,76.77,41.3,62.21,82.33,45.185,517.82,43.9,34.22,101.29,20.14,76.34,56.2,119.62,40.75,66.26,11.7,31.44,70.1,71.03,54.76,68.26,53.41,63.09,47.45,57.02,14.27,35.08,26.61,47.16,316.79,46.53,67.16,36.97,45.22,62.26,33.55,110.83,90.34,58.54,39.45,39.31,27.5,44.96,11.23,23.12,71.19,35.77,66.8,56.7,160.5,34.71,68.63,26.33,102.77,141.25,45.536,161.59,35.91,50.93,60.11,86.74,12.78,46.34,15.13,154.82,75.77,65.64,43.39,28.85,30.58,41.1,80.42,125.81,21.3,62.96,31.92,28.4,44.24,61.97,26.79,64.5,115.87,29.41,16.67,69.8,28.5,36.96,14.03,151.21,62.15,11.62,114.43,149.76,167,39.31,200.83,80.21,54.71,56,41.97,32.92,173.47,36.47,51.63,87.83,48.07,24.86,88,117.15,51.91,58.62,22.21,16.41,83.34,40.29,12.61,801.2,64.1,48.84,46.82,23.22,19.26,59.28,88.6,77.6,20.88,70.78,38.85,39.79,41.51,54.59,30.99,15.84,44.21,24.47,48.84,102.16,40.94,8.11,23.34,52.63,42.3,67.27,94.28,62.39,8.375,13.1,84.01,35.55,13.43,102.09,41.16,54.57,9.39,33.105,66.5,90.55,36.34,9538.46,169.22,34.428,16.24,35.82,85.93,46.27,56.19,55.57,29.21,211.55,53.45,37.65,48.03,137.11,59,74.36,40.02,61.36,32.01,81.62,33.84,49.95,60.14,24.18,52.65,74.41,69.73,82.65,13.1,22.757921,25.67001,19.948723
3/1/2013,41.93,23.68,88.84,105.62,93.77,95.68,4.19,7.07,47.93,32.89,77.28,24.42,60.4,23.18,89.43,38.38,46.39,21.53,25.35,54.78,76.7,158.58,20.49,13.59,77.59,73.75,74.78,34.66,23.68,45.02,160.69,46.17,48.9,48.93,65.47,41.82,34.63,35.32,31.55,126.21,39.5,36.9,71.26,12.96,158.08,47.98,56.04,76.49,107.46,30.82,69.32,39.31,29.14,58.13,76.4,59.64,59.92,56.31,45.78,37.47,34.89,71.36,43.45,56.93,50.66,19.67,122.06,40.88,38.7,44.22,116.57,27.95,102.02,12.61,27.55,7.71,41.16,98.42,39.29,69.18,60.51,44.37,33.89,8.52,60.89,43.45,76.77,44.28,96.27,265.74,159.99,39.08,113.05,40.63,55.86,54.07,91.44,103.52,46.35,27.39,67.73,73.3,146.02,114.35,42.63,79.82,94.45,31.97,40.81,227.43,34.3,58.56,58.28,52.23,77.64,24,58.26,12.71,38.84,36.96,88.75,30.02,34.05,37.81,149.24,29.76,22.43,73.75,65.6,77.39,35.14,63.9,123,18.04,378.14,51.87,30.66,51.56,44.83,61.6,64.9,89.23,35.51,48.91,201.5,53.28,65.04,27.21,27.81,55.34,56.13,71.71,105.38,69.25,20.83,53.88,70.85,27.78,79.66,20.21,553.4,61.88,106.43,103.09,29.8,40.23,23.8,124.94,45.16,78.45,57.24,91.36,69.03,51.58,35.57,72.96,46.63,85.67,66.96,35.26,102.62,61.57,52.15,30.64,95.54,58.18,38.38,34.48,27.93,85.54,43.18,72.36,62.66,37.36,22.97,30.1,46.17,32.32,36.65,41.49,28.71,74.88,37.85,33.6,59.9,19.25,85.01,27.2,22.51,86.34,24.05,63.74,134.81,46.51,32.85,92.58,32.48,189.37,54.87,46.71,68.9,54.82,93.58,42.85,60.58,65.52,37.24,77.94,41.31,62.03,82.65,46.11,518.3,43.8,33.7,101.42,20.15,76.37,55.43,120.03,40.5,66.1,11.82,31.09,70.05,71,54.5,67.88,52.63,63.92,46.97,57.06,14.82,35.39,26.45,48.18,319.74,46.72,69.04,37.15,45.23,62.12,33.49,110.04,89.28,58.47,39.57,39.83,27.49,45.23,11.34,23.06,71.74,35.85,66.43,56.07,161.55,33.83,68.08,26.21,103.42,140.83,45.62,162.48,36.01,51.99,60.11,86.77,12.79,47.57,15.05,154,75.93,66.3,43.55,28.47,30.67,40.68,80.69,123.69,20.7,64.13,31.49,28.19,43.84,63.4,26.83,66.17,115.05,29.57,16.61,70.14,28.27,36.65,14.26,151.95,62.37,11.93,114.11,150.53,171.73,39.48,202.91,80.31,54.9,56.42,42.11,33.87,174.17,36.46,51.74,87.89,47.71,24.78,88.17,116.9,51.5,59.69,22.38,17.16,83.45,39.62,12.52,806.19,64.47,48,46.17,23.19,19.22,59.23,89.05,78.13,21.03,71.74,38.82,40.03,41.8,55.33,30.91,15.825,45.24,24.61,49.06,102.05,41.32,8.15,23.3,52.02,42.68,68.39,94.3,62.78,8.25,13.03,83.98,35.17,13.61,102.66,42.11,54.67,9.33,33.35,66.54,90.13,36.45,9615.3799,182,34.52,16.4,35.37,86.1,46.18,56.3,54.98,29.53,212.94,53.52,37.66,48.48,136.57,59.02,74.82,40.11,61.65,31.67,82.67,33.95,50.19,59.71,24.39,51.93,75.07,69.71,82.87,13.24,23.080214,25.394911,19.914478
3/4/2013,42.03,23.69,88.76,105.56,93.74,95.07,4.2,7.21,48.71,32.37,77.09,24.52,60.37,23.21,88.95,39.41,46.45,21.65,24.7,54.76,77.2,158.93,20.13,13.57,77.39,74.27,75.33,34.38,23.955,45.01,163.4,46.39,49.46,49.37,63.67,41.92,34.61,35.45,31.89,126.65,39.86,37.2,71.61,12.67,159.5,48.25,56.87,76.68,107.39,31.05,68.06,39.57,29.49,58.9,75.84,59.55,60.88,57.1,46.1,37.98,35.11,72.89,44.24,56.75,49.81,19.49,123.88,41.13,38.82,43.99,116.55,28.15,103.89,12.75,28.02,7.85,41.29,98.91,39.81,69.61,60.03,45.02,34.09,9.09,60.49,43.87,77.32,44.54,96.64,273.11,161.46,39.76,114.6,39.96,56.28,53.82,92.36,104.47,46.54,27.69,67.04,73.34,147.03,117.36,43.34,80.34,93.65,32.02,41.01,229.37,34.69,58.38,57.62,51.99,76.5,24.13,58.17,12.655,39.86,36.65,88.66,30.88,33.91,38.24,148.52,29.95,22.6,72.73,67.21,77.25,35.41,65.68,121.79,18.2,380.66,53.12,31.13,51.87,45.03,61.54,65.07,89.6,35.141,49.1,200.42,53.84,66.27,27.09,28.275,55.65,55.99,71.97,105.8,69.71,20.74,53.53,71.55,27.72,79.65,20.46,541.32,61.82,108.05,103.68,30.21,40.45,23.78,125.04,45.24,78.98,57.88,89.75,70.29,52.08,35.69,72.37,48.51,85.78,66.33,35.4,103.61,61.66,52.19,30,97.67,57.34,38.43,35.16,28.17,86.2,42.85,73.59,62.12,38.65,23.15,30.73,46.41,32.04,36.39,41.7,29.1,75.59,38.07,34.31,60.24,19.72,89.79,27.58,23.24,86.34,23.54,64.42,135.59,46.25,33.21,92.73,32.78,181.21,55.7,47.46,69.18,54.73,92.65,43.47,61.05,64.38,37.21,78.59,41.74,62.5,81.64,46.48,521.41,43.69,33.54,103.43,19.97,77.02,55.58,121.81,40.6,64.01,12.04,31.2,69.7,71.97,53.97,66.85,52.05,62.68,46.84,57.06,15.65,35.85,26.88,47.81,321.76,47.11,70.48,36.94,45.3,62.95,33.93,110.07,88.09,58.35,39.2,40.46,27.49,45.26,11.41,22.49,72.58,36.14,67.08,55.54,161.61,33.57,68.87,26.07,103.47,142.33,45.51,165.38,36.23,52.1,60.65,89.9,12.83,48.65,15.17,156.57,76.6,66.63,43.78,28.64,30.88,41.54,80.52,123,20.42,66.44,31.4,28.39,44.45,63.11,27.46,66.66,114.13,29.95,16.62,70.97,28.37,37.4,14.09,152.75,62.89,12.02,114.84,152.18,172.65,39.15,205.19,81.36,55.48,56.41,42.94,33.65,174.4,36.34,51.8,87.97,47.33,25.44,87.1,117.49,50.8,60.44,22.43,17.77,84.58,39,12.38,821.504,64.89,48.29,46.31,23.27,19.51,59.27,89.48,78.86,21.27,73.26,38.94,40.38,42.3,55.8,31.34,16.02,45.22,25.22,49.49,101.95,41.77,8.18,23.47,52.87,42.59,69.22,95.04,63.52,8.4,13.56,84.17,34.93,13.9,103.27,41.77,54.24,9.49,33.515,68.84,89.13,36.32,9615.3799,185.89,34.56,16.78,34.84,86.6,46.27,56.73,55.43,29.47,213.05,53.32,37.77,49.34,138.35,59.4,75.24,40.08,61.835,31.89,82.77,33.59,50.21,58.32,24.93,52.09,74.65,69.78,82.93,13.21,23.784952,25.412106,20.462339
3/5/2013,42.66,24.15,89.9,108.37,94.96,95.81,4.1,7.18,48.98,32.54,78.66,24.65,60.81,23.33,89.61,40.24,46.49,21.86,25.1,55.54,77.66,158.96,19.98,13.74,78.34,75.29,76.43,34.82,24.2,45.25,164.26,46.67,49.63,50.06,64.86,42.6,35.15,36.43,32.42,126.74,40.06,37.5,71.81,12.8,160.29,48.27,57.22,77.05,108.39,31.31,67.82,39.83,30.19,59.36,76.81,60.69,61.63,57.5,46.62,38.17,35.23,73.84,45,58.08,49.05,19.5,125.07,41.8,38.68,44.19,116,28.35,105.64,12.87,28,7.92,42.01,101.48,40.03,70.2,61.63,45.41,34.29,9.39,60.75,45.02,77.28,45.26,97.1,275.59,162.61,40.58,114.985,41,56.67,54.37,92.28,105.25,47.21,28.07,67.67,73.42,149.15,118.88,43.25,82.73,96.45,32.21,41.71,231.78,34.73,59.62,57.66,52.65,76.95,24.48,59.39,12.8,40.69,36.94,89.19,31.05,34.18,37.51,150.8,30.36,22.74,72.85,68.03,78.53,35.26,65.77,124.7,18.51,382.32,53.95,30.41,52.3,45.36,62.3,66,92.28,35.13,49.49,201.53,54.37,67.88,27.58,28.51,56.14,56.41,72.58,107.91,70.16,21.218,54.08,72.7,27.52,80.6,20.85,525.72,62.27,110.25,104.29,30.88,40.83,24.11,125.75,45.79,79.53,57.84,90.21,70.47,51.99,36.02,73.47,48.24,86.75,67.03,35.91,104.57,62.22,53.03,30.21,98.17,58.41,38.76,34.83,28.32,86.46,43.08,73.88,62.15,39.34,23.58,30.69,46.58,32.34,37.19,42.22,29.23,76.6,38.25,34.67,60.74,20.22,88.75,27.84,23.8,86.9,24.3,65.91,136.22,46.28,33.45,93.44,32.84,181.73,56.51,47.66,70.24,54.9,93.43,43.34,61.42,64.91,37.27,79.84,41.91,62.97,82.45,46,527.1,43.95,34.33,103.15,20.37,76.95,56.7,123.35,41.17,64.95,12.11,31.28,70.68,72.77,55.55,67.44,54.94,63.1,48.36,57.54,15.86,35.88,27,48.37,329.24,47.69,70.17,37.57,45.77,63.58,34.24,109.35,89.51,58.36,39.46,41.46,28.45,45.78,11.55,22.73,73.93,36.2,67.52,56.25,165.18,33.71,70.27,26.33,105.4,145.07,47.68,164.86,36.6,53.69,61.35,91.01,12.94,48.92,15.2,158.53,76.9,67.97,44.88,29.43,31.46,41.72,81.46,125.23,20.87,66.68,31.54,29.04,44.14,63.09,27.7,68.09,116.45,30.38,16.61,71.6,29.18,37.49,14.27,153.98,64.12,12.18,115.71,152.96,174.64,40.24,206.53,84.11,55.26,56.51,43.6,34.38,177.09,36.92,51.57,90.11,47.23,25.12,87.81,117.93,51.32,60.77,22.73,18.4,85.2,38.6,12.52,838.604,65.85,50.03,48.33,23.59,20.02,60.52,90.2,78.65,21.51,73.72,39.55,40.95,42.58,56.48,31.44,16.02,46.97,25.65,49.71,102.66,40.72,8.22,23.69,53.39,43.12,69.9,95.87,63.66,8.73,13.66,84.77,35.67,14.05,103.66,41.69,54.85,9.52,33.94,69.82,91.02,36.48,9461.54,185.77,35,16.98,35.51,87.62,46.62,57.41,56.76,29.59,217.4,53.5,38.28,49.99,139.08,59.58,76.92,40.7,62.66,32.27,82.93,34.14,51.01,58.35,24.66,53.24,75.52,71.12,84.07,13.21,23.862303,25.584042,20.51712
3/6/2013,43.24,24.26,89.74,110.03,94.62,96.81,4.04,7.22,48.35,32.75,79.08,24.74,61.34,23.57,89.56,40.65,46.43,21.71,25.9,55.08,77.39,159.61,20.12,13.67,78.52,74.4,76.67,34.88,24.52,45.05,163.17,46.27,49.46,50.32,65.01,42.34,34.81,36.54,32.58,126.23,40.5,37.23,70.9,12.9,161.06,48.48,57.31,77.2,108.32,30.77,67.65,39.55,29.87,59.7,76.33,60.34,62.01,58.66,46.05,38.08,35.6,74.33,45.12,58.81,48.68,19.74,122.72,41.7,39.02,44.27,117.3,28.09,104.34,12.89,28.17,8.04,42.29,102.11,39.85,69.69,62.75,46.49,34.06,9.61,60.34,45.4,77.67,46.05,96.72,273.79,161.92,41.29,116.69,40.8,56.82,54.38,91.6,104.83,47.33,28.12,67.68,73.79,150.01,118.51,43.68,81.74,96.42,32.32,40.74,230.63,34.83,59.3,58,51.92,77.16,24.59,59.5,12.79,41.25,36.91,88.12,31.18,34.61,37.74,150.79,30.46,22.91,73.55,67.88,77.63,35.3,66.05,125.6,18.62,376.55,54.31,30.67,52.22,45.48,62.61,65.96,90.91,34.93,50.03,202.02,54.05,67.99,27.91,28.52,56.36,56.34,72.79,108.04,69.88,21.715,54.32,72.01,27.4525,81.83,20.51,519.78,62.52,111.36,104.23,31.3,41.44,24.17,124.98,46.07,79.23,57.77,89.64,70.48,52.8,35.53,73.28,47.62,86.66,67.59,36.23,103.44,61.77,53.45,30.37,97.7,58.43,38.83,35.29,28.24,86.86,43.12,74.17,62.62,39.94,23.2,30.9,46.63,33.02,37.46,42.21,29.1,75.35,38.45,34.27,61.07,20.08,88.54,27.75,23.71,86.71,24.41,64.95,135.45,46.12,32.95,93.27,32.83,182.94,57.1,47.66,69.97,55.3,93.11,43.05,61.42,64.96,37.17,80.7,41.53,63.11,81.89,45.47,527.58,43.79,34.71,102.56,20.93,76.18,57.95,121.95,40.94,64.69,12.05,31.04,71.27,72.62,55,67,54.26,63.35,48.48,57.23,15.67,36.05,26.89,48.83,329,47.28,70.06,37.76,46.12,63.65,34.13,109.92,89.66,58.2,39.38,41.29,29.34,46.03,11.92,23.15,74.22,36.14,66.81,56.36,164.74,33.72,70.51,26.37,104.17,146.2,48.63,163.77,36.29,53.5,61.86,93.181,12.84,48.2,15.18,160.35,76.8,66.67,44.81,29.82,31.47,41.08,81.07,125.11,21.16,66.12,32.84,29.26,43.25,62.22,27.78,66.48,116.87,30.26,16.5,72.13,29.56,37.53,14.43,152.59,64.65,12.36,115.35,154.13,174.55,40.38,208.38,83.22,53.57,56.46,44.58,34.46,177.42,36.78,51.335,89.27,45.73,25.26,88.36,118.47,50.96,62.52,22.34,18.75,84.48,40.01,12.56,831.38,65.92,50.24,49.51,23.67,19.89,61.19,89.24,77.5,21.75,73.38,39.09,40.85,42.53,56.36,31.81,16.03,46.58,26.06,49.64,103.24,39.96,8.51,23.94,53.71,43.11,69.77,94.64,64.16,8.65,13.79,84.78,35.89,14.57,103.83,41.41,55.36,9.66,33.775,69.49,91.07,36.44,9615.3799,186.37,35.14,17.35,35.5,88.9,47.26,57.83,56.95,29.36,217.57,53.61,38.41,50.19,138.96,59.25,77.41,40.95,62.3,32.23,83.87,34.55,51.1,58,24.73,53.44,77.18,72,84.43,13.23,23.759167,25.394911,20.359615
3/7/2013,43.25,24.35,89.3,110.18,94.26,97.09,4.09,7.34,48.04,33.34,81.05,24.8,61.53,23.77,88.71,40.91,46.46,21.63,26.098,55.35,77.75,158.48,21.12,13.545,78.12,73.39,76.49,35.3,24.665,44.87,162.5,46.19,49.11,50.23,67.49,42.58,34.72,37.21,32.65,124.75,40.76,36.75,70.84,12.94,160.51,48.08,57.03,76.9,108.05,30.52,67.45,39.08,29.95,55.23,76.7,60.85,61.73,58.66,46.01,38.27,34.53,74.26,44.77,58.83,47.75,20.85,124.08,41.78,39.12,44.46,117.21,28.14,103.61,12.83,28.56,8.22,42.54,103.41,39.45,69.22,63.41,46.78,34.05,9.65,60.29,44.95,77.93,46.24,97.09,273.88,160.08,41.57,115.44,41.41,56.5,53.99,91.81,103.83,47.29,28.27,67.74,73.67,150.19,116.08,43.27,82.81,97.24,32.57,40.49,230.23,34.65,57.44,57.86,51.59,77.82,24.7,58.94,12.76,41.42,37.04,88.24,31.08,34.3,37.49,149.62,30.22,23.22,75.65,67.38,78.84,35.02,65.87,127.56,18.71,381.52,54.42,31.12,52.09,45.39,62.17,65.4,91.51,35.19,50.63,202.76,54.41,67.93,27.88,28.55,55.24,55.42,72.52,106.96,69.55,21.802,55.79,72.13,28.578,81.18,21.09,513.178,62.7,111.96,103.82,31.63,41.49,24.25,125.57,46.31,78.48,57.96,89.65,70.25,53.47,35.91,73.1,46.51,86.62,67.76,37.36,104.38,61.42,53.13,31.38,97.36,59.47,38.7,35.32,28.03,86.64,43.22,73.94,62.02,40.01,22.71,30.79,46.41,32.22,38.24,42.05,28.96,77.16,39.01,34.43,60.89,20.19,88.28,28.01,23.82,87.85,24.54,64.32,135.47,45.89,32.67,92.95,32.67,181.56,58.25,47.39,69.29,55.22,94.23,42.87,61.47,65.27,36.96,80.53,41.09,62.64,81.69,45.1,526.67,44.03,34.97,101.97,20.85,76.22,58.26,118.91,41.26,65,12.09,30.87,72.17,73.21,55.04,67.39,53.78,65.71,49.4,56.93,15.9,36.42,26.85,47.27,327.5,47.48,70.88,37.53,45.71,63.52,33.96,112.35,90.79,59.29,39.36,41.5,28.4,45.73,12.26,23.33,74.81,36.24,66.49,56.48,164.13,34.31,70.74,26.66,103.61,146.2,50.59,164.84,36.39,53.98,62.09,92.24,13.01,47.46,14.99,158.74,77.14,66.79,44.98,29.66,31.61,41.23,81.2,127.65,21.09,65.85,33.08,29.26,44.05,64.67,27.94,69.5,117.28,30.18,16.54,72.08,29.96,37.28,14.4,150.46,64.56,12.32,115.41,156.62,171.94,41.76,209.42,83.02,52.98,55.87,45,35.87,177.18,36.76,51.1,89.77,45.74,24.98,88.79,118.56,50.84,62.13,22.36,19.26,84.52,39.93,12.66,832.596,65.9,50.41,50.17,23.68,19.96,58.21,89.53,77.56,21.89,73.32,38.78,40.62,42.32,56.32,31.82,16.23,46.58,26.13,48.86,103.41,40.13,8.57,24.01,54.43,42.8,70.15,93.97,64.81,8.94,14.03,84.16,35.94,14.82,103.96,41.41,55.64,9.92,34.06,69.04,91.71,36.56,9538.46,184.47,35.2,17.58,34.84,88.91,47.48,57.95,58.23,30.25,216.07,53.8,37.53,50.17,137.02,58.98,77.57,41.06,63.34,31.84,84,34.28,51.57,57.43,24.78,53.72,77.51,72.02,84.3,13.24,23.711899,25.326138,20.304829
3/8/2013,43.03,25.45,90.32,111.36,94.48,98.71,4.07,7.36,47.88,33.51,81.23,24.84,62.29,24,88.97,41.41,46.33,21.82,26.29,55.16,78.19,157.85,20.69,13.54,78.96,74.77,77.04,35.56,24.57,45.29,162.82,46.66,48.92,50.95,70.61,42.84,34.88,39.03,33.42,124.08,40.9,36.92,70.34,13.08,160.67,48.48,57.05,77.18,109.32,30.64,67.82,40.09,30.57,56.2,77.18,61.91,62.34,59.2,45.9,38.55,34.39,74.43,44.69,59.37,47.34,21.33,123.28,42.16,39.22,44.85,117.35,28,105.32,12.98,29.35,8.15,42.74,104.88,39.21,69.29,64.31,47.65,33.89,9.84,60.21,45.43,78.14,46.78,97.24,274.19,160,41.37,115.69,42.08,56.82,54.72,91.11,102.89,47.42,28.19,68.89,73.99,151.17,117.75,42.97,83.09,97.95,32.54,41.31,231,34.77,59.03,58.39,51.69,77.96,24.88,59.66,12.82,41.72,37.25,88.84,31.05,34.89,37.34,150.05,30.41,23.03,75.65,67.48,78.84,35.61,66.03,128.68,18.58,385.25,54.2,31.4,52.28,45.32,62.44,65.72,92.29,35.25,50.2,207.14,54.93,67.75,28,28.58,54.93,55.94,73.24,107.8,69.64,21.83,56.24,73.82,27.96,81.97,21.59,514.63,63.03,112.3,104.7,33,42.22,24.25,125.86,46.33,78.65,58.83,90.51,71.37,53,36.27,73.75,45.5,86.98,68.19,37.6,104.7,61.94,53.22,32.12,98.49,60.02,39.31,36.29,28.29,87.56,43.58,74.16,63.35,40.17,22.99,30.73,46.78,32.5,38.37,42.42,28.97,77.9,39.58,34.68,61.12,20.26,89.02,28.52,24.07,89.1,24.67,64.72,137.34,46.28,32.69,93,33.27,184.7,58.67,47.49,69.89,54.69,94.01,42.78,61.52,65.96,36.98,80.51,41.39,62.75,82.4,45.03,529.23,44.35,35.27,103.04,21,76.84,58.85,118.72,41.43,64.28,12.26,31.3,73.7,73.93,55.16,68.03,54.8,65.26,50.46,57,16.24,36.5,27.08,47.66,321.84,47.96,70.25,37.4,46.05,63.43,34,112.49,90.6,60.22,40.29,41.5,28.43,45.6,12.07,23.72,75.2,35.67,66.65,57.29,164.74,34.71,72.09,26.92,103.42,146.84,51.03,165.88,36.68,54.72,62.01,91.06,13.1,47.79,14.99,158.6,77.2,66.65,46,30.4,31.89,41.67,81.65,127.64,21.4,66.35,33.28,29.49,43.99,64.6,28.11,69.99,119.63,30.24,16.93,71.79,30.16,37.24,14.63,150.47,64.7,12.33,115.74,152.98,172.97,43.2,210.38,84.24,53.13,55.87,46.68,36.23,177.46,36.85,51.54,90.88,45.42,27.28,89.99,118.57,51.55,63.6,22.5,20.17,84.32,39.25,12.71,831.52,65.7,51.82,52.81,23.77,19.94,58.19,89.45,77.14,21.58,73.03,38.69,41,42.21,57.39,32.13,16.34,47.37,26.51,49.06,103.63,40.64,8.71,24.94,54.82,42.88,70.2,94.19,65.02,9.2,13.96,84.21,36.37,14.92,103.96,41.38,56.03,9.86,33.99,69.47,92.07,36.85,9461.54,185.85,35.29,17.66,35.85,90.3,47.33,58.35,59.6,31.17,217.08,53.81,37.91,50.72,138.7,58.95,78.35,41.67,63.35,32.08,84.45,34.21,50.14,57.7,24.71,54.31,79.5,72.23,84.44,13.29,23.849409,25.1628,20.469185
